経過時間(s),めり込み量(mm),Y軸めり込み量(mm),,デバイス先端,X座標,Y座標,Z座標,,仮想物体との接触位置,X座標,Y座標,Z座標,,接触点の法線と床の法線とのなす角,接触点の法線とデバイスの方向ベクトルのなす角,床の法線とデバイスの方向ベクトルのなす角
0, 0.21,0.21,,,0.1683853,4.488392,1.738427,,,0.1683082,4.489386,1.738755,,66.444105717665,49.4641193097411,18.9912533738288
0.003, 0.07,-0.07,,,0.1677697,4.490998,1.738378,,,0.167794,4.490679,1.738272,,66.2415632936537,49.2267156011762,18.9744545240326
0.01, 0.68,-0.68,,,0.1673571,4.496131,1.738364,,,0.1675942,4.492898,1.737296,,65.8931007122749,48.8472815278677,18.9373017110762
0.017, 1.47,-1.47,,,0.1662771,4.501233,1.739105,,,0.1667667,4.494286,1.736814,,65.674753230964,48.5948001771296,18.8808689821766
0.024, 2.29,-2.29,,,0.1658352,4.506315,1.739891,,,0.1665715,4.495442,1.736312,,65.4925920908688,48.400020262894,18.8207599040586
0.031, 3.11,-3.11,,,0.1648274,4.511358,1.740767,,,0.1657879,4.496594,1.73592,,65.3107519696557,48.2044241410753,18.7518825708376
0.038, 3.98,-3.98,,,0.1644445,4.516377,1.741709,,,0.1656237,4.497489,1.735526,,65.1693807181488,48.0722736446913,18.6757345014474
0.045, 4.74,-4.74,,,0.1636292,4.52075,1.74263,,,0.1649855,4.498248,1.735286,,65.0493538072043,47.9551290734962,18.6072618569235
0.053, 5.47,-5.47,,,0.1634842,4.525695,1.743014,,,0.1649973,4.49973,1.73457,,64.8145660610186,47.7556841401874,18.5280777685317
0.059, 6.28,-6.28,,,0.1634888,4.529997,1.743994,,,0.1651794,4.500159,1.734327,,64.7464622466996,47.7297089314966,18.4516001425233
0.066, 7.13,-7.13,,,0.1642423,4.534272,1.744954,,,0.1661184,4.500408,1.734025,,64.7067515279702,47.7545025174938,18.3773167147246
0.074, 8,-8,,,0.163818,4.539128,1.74597,,,0.1658823,4.501074,1.733746,,64.6009792214268,47.7025896661517,18.2918539751131
0.08, 8.94,-8.94,,,0.1645978,4.543992,1.746978,,,0.1668549,4.501449,1.733372,,64.5412765395531,47.7183913083569,18.2089115752351
0.087, 9.79,-9.79,,,0.1646744,4.548252,1.74804,,,0.1670787,4.501679,1.733215,,64.5046872171875,47.7409104414237,18.1199705618855
0.094, 10.64,-10.64,,,0.1645806,4.552545,1.749144,,,0.1671001,4.5019,1.733102,,64.4695049137518,47.7573746119599,18.02400469917
0.101, 11.6,-11.6,,,0.1649186,4.557492,1.750267,,,0.1675384,4.502236,1.73285,,64.4160518547947,47.7562373854947,17.9263466571348
0.108, 12.45,-12.45,,,0.1645323,4.561862,1.75139,,,0.1671895,4.502525,1.732777,,64.3700915131487,47.7395239130608,17.8298873132655
0.115, 13.45,-13.45,,,0.1640496,4.56627,1.753096,,,0.1667376,4.502127,1.733062,,64.4334893272605,47.8185252938973,17.7393104696552
0.121, 14.23,-14.23,,,0.1642852,4.570068,1.754116,,,0.1669539,4.502186,1.732991,,64.4240909872241,47.8320832190225,17.6637771172732
0.128, 15.06,-15.06,,,0.1637778,4.57451,1.755154,,,0.1663921,4.502646,1.732873,,64.350898682115,47.7659191783738,17.5851035855077
0.135, 15.97,-15.97,,,0.1632549,4.578352,1.756796,,,0.1658011,4.50212,1.733249,,64.4347938933557,47.8534138992069,17.5081205255147
0.142, 16.71,-16.71,,,0.1628785,4.582173,1.757776,,,0.1653365,4.502375,1.733212,,64.394174759492,47.8229990676792,17.4386967771753
0.149, 17.44,-17.44,,,0.1626977,4.585963,1.758689,,,0.16509,4.502646,1.733126,,64.3510694368395,47.7978947080834,17.3763917933003
0.156, 18.07,-18.07,,,0.1626902,4.589124,1.75951,,,0.1650281,4.502752,1.733085,,64.334212530437,47.8021806516683,17.322839696603
0.163, 18.51,-18.51,,,0.1629668,4.592254,1.759568,,,0.165282,4.503741,1.732545,,64.1765717687799,47.6714200987418,17.284790421343
0.17, 18.99,-18.99,,,0.1627784,4.594758,1.760155,,,0.1651048,4.503942,1.732479,,64.1444357296293,47.6574182113329,17.253774533185
0.177, 19.32,-19.32,,,0.1634117,4.597239,1.760013,,,0.1657789,4.504858,1.731891,,63.9982287043245,47.5410420363981,17.2364497588374
0.184, 19.48,-19.48,,,0.1641149,4.599712,1.759224,,,0.1665194,4.506551,1.73089,,63.7274390320256,47.302815290061,17.2229720884327
0.191, 19.96,-19.96,,,0.1648148,4.60218,1.759674,,,0.1672964,4.5067,1.73066,,63.7035265404068,47.3082521204891,17.2095183236895
0.198, 20.19,-20.19,,,0.1648711,4.604038,1.759544,,,0.1673895,4.507493,1.730236,,63.5763757423562,47.201332342197,17.1941828418823
0.205, 20.45,-20.45,,,0.1655069,4.605889,1.759459,,,0.1680603,4.50808,1.7298,,63.4822147570786,47.1370226978563,17.1767521996054
0.212, 20.69,-20.69,,,0.165481,4.607745,1.759407,,,0.1680532,4.508784,1.729438,,63.3690863370038,47.0438896560203,17.1557749817008
0.219, 20.85,-20.85,,,0.1654487,4.608981,1.759389,,,0.1680292,4.509216,1.729219,,63.2997530886684,46.9950947859476,17.1329177542794
0.226, 21.29,-21.29,,,0.166052,4.610817,1.759989,,,0.168681,4.508947,1.729226,,63.342803769809,47.0690862231673,17.1102159136573
0.233, 21.37,-21.37,,,0.1661252,4.611415,1.759965,,,0.1687808,4.509127,1.729113,,63.3139872025026,47.06270682666,17.092273007207
0.239, 21.54,-21.54,,,0.1662523,4.612604,1.759949,,,0.1689601,4.509497,1.728884,,63.2544142942195,47.0282041270279,17.0764286763208
0.246, 21.63,-21.63,,,0.1665447,4.613146,1.759899,,,0.1693383,4.509617,1.728744,,63.2351190103511,47.0444907126505,17.0608609680882
0.253, 21.71,-21.71,,,0.166905,4.613683,1.759807,,,0.1698021,4.509778,1.728564,,63.2092121035502,47.0530352790644,17.0519185431662
0.26, 21.81,-21.81,,,0.1680129,4.614197,1.759666,,,0.1710547,4.509792,1.728294,,63.2067259147615,47.1008466019241,17.0480167977114
0.267, 21.8,-21.8,,,0.1685632,4.614091,1.759509,,,0.1717481,4.509744,1.728171,,63.2142937641513,47.1502288682491,17.0463741372618
0.274, 21.65,-21.65,,,0.1697577,4.613995,1.75869,,,0.1730739,4.510352,1.727567,,63.1163283636119,47.1027453944605,17.0526749865958
0.281, 21.62,-21.62,,,0.1704125,4.613895,1.758431,,,0.1738946,4.510419,1.727351,,63.1052976084093,47.1302847164276,17.0652835154527
0.288, 21.34,-21.34,,,0.1710921,4.613192,1.757525,,,0.1747045,4.511065,1.726832,,63.0012874906227,47.0629629587468,17.0844165823328
0.295, 21.25,-21.25,,,0.1723136,4.612507,1.757234,,,0.1760677,4.510828,1.72665,,63.0390994168157,47.1390171130385,17.1074291965535
0.302, 20.96,-20.96,,,0.1729835,4.611821,1.756295,,,0.1768566,4.51153,1.726099,,62.925923185418,47.0576388264369,17.133891056209
0.31, 20.62,-20.62,,,0.1742956,4.610527,1.755325,,,0.1782806,4.511872,1.725587,,62.8704893716568,47.0455664674149,17.1640156047051
0.316, 20.26,-20.26,,,0.1749526,4.60923,1.754406,,,0.179028,4.512325,1.72517,,62.7973448778705,47.0059377109532,17.1890414171276
0.322, 20.06,-20.06,,,0.1755432,4.607936,1.754148,,,0.1797216,4.511991,1.725183,,62.8511052953317,47.0897372995482,17.2098410501188
0.329, 19.58,-19.58,,,0.1756443,4.606018,1.753225,,,0.1798907,4.512382,1.724935,,62.7880421604798,47.0515326374889,17.2361509380695
0.336, 19.14,-19.14,,,0.1764051,4.604093,1.75229,,,0.180731,4.512589,1.724621,,62.7543215174859,47.0594249208552,17.2641581279818
0.344, 18.64,-18.64,,,0.1766456,4.602174,1.751271,,,0.1810503,4.513068,1.724287,,62.6770037782329,47.0086595412617,17.3044681957942
0.35, 18.09,-18.09,,,0.1775454,4.599645,1.750219,,,0.182017,4.513178,1.723991,,62.6589720793258,47.0303624667455,17.350001650629
0.357, 17.49,-17.49,,,0.1779389,4.597117,1.74909,,,0.182474,4.513542,1.723683,,62.6001368314526,46.9979327294687,17.4075477003323
0.364, 16.77,-16.77,,,0.177782,4.593982,1.747919,,,0.1823436,4.513912,1.723515,,62.5402224137205,46.9485914442776,17.4727828352797
0.371, 16.07,-16.07,,,0.1782715,4.590848,1.74673,,,0.1828576,4.514111,1.72328,,62.5079839217351,46.9434790478261,17.5409429986579
0.378, 15.25,-15.25,,,0.178256,4.587099,1.745489,,,0.1828296,4.514309,1.723179,,62.4758683731514,46.9253107451395,17.6183751435763
0.385, 14.28,-14.28,,,0.1782002,4.583363,1.743645,,,0.182682,4.515246,1.722706,,62.3241425551509,46.7871770032091,17.6961505054909
0.392, 13.45,-13.45,,,0.1781987,4.579629,1.742374,,,0.1826183,4.515483,1.722592,,62.2857432327057,46.7601021340925,17.7801976884364
0.398, 12.64,-12.64,,,0.1780401,4.575907,1.7412,,,0.1823548,4.515652,1.722565,,62.2583200239512,46.7357251896231,17.8558232483696
0.405, 11.55,-11.55,,,0.177574,4.571543,1.739307,,,0.1817044,4.516539,1.722239,,62.1145172251674,46.5967547495427,17.949154365686
0.412, 10.67,-10.67,,,0.1777085,4.567144,1.738146,,,0.1816988,4.516348,1.722346,,62.1455194529474,46.6572326578656,18.029810359803
0.419, 9.71,-9.71,,,0.1773112,4.562057,1.737171,,,0.1811122,4.515823,1.722777,,62.2307807019841,46.7808420029302,18.0897162397988
0.426, 8.64,-8.64,,,0.1768845,4.556933,1.735724,,,0.1804095,4.515845,1.722936,,62.22739292825,46.8316586089409,18.1326166567819
0.433, 7.67,-7.67,,,0.176568,4.551116,1.73507,,,0.1798388,4.514629,1.723737,,62.4246146350459,47.1085032437706,18.1555148653371
0.44, 6.89,-6.89,,,0.1763953,4.545222,1.735164,,,0.1794734,4.512426,1.72501,,62.7808636318619,47.5693429244365,18.166701007339
0.447, 6.07,-6.07,,,0.1761708,4.539916,1.73477,,,0.1789996,4.511031,1.725864,,63.005966170074,47.9117915244185,18.1653213091651
0.454, 5.19,-5.19,,,0.1760161,4.533958,1.734472,,,0.1785387,4.509273,1.726897,,63.2890638429148,48.3238636557676,18.1588240918979
0.461, 4.49,-4.49,,,0.1758491,4.527967,1.734908,,,0.1781245,4.506583,1.728384,,63.7205132204,48.8906771335518,18.1421157421057
0.468, 3.67,-3.67,,,0.1752592,4.522244,1.734845,,,0.177173,4.50478,1.729521,,64.0090272331018,49.2090493173795,18.1836928099739
0.476, 2.94,-2.94,,,0.1743261,4.516296,1.735287,,,0.1759127,4.502305,1.731046,,64.4038053259537,49.7000511125809,18.1698548471005
0.482, 2.16,-2.16,,,0.1737155,4.510526,1.735399,,,0.1749145,4.500237,1.732286,,64.7326584347711,50.0691306193957,18.1984067445839
0.489, 1.39,-1.39,,,0.1741826,4.504013,1.735646,,,0.1749832,4.497388,1.733649,,65.1840587942667,50.6361387575659,18.2273069817053
0.496, 0.82,-0.82,,,0.1738822,4.498178,1.736415,,,0.1743667,4.494294,1.735247,,65.6724104761439,51.1937690462666,18.2649601060045
0.503, 0.03,-0.03,,,0.1744401,4.492426,1.736221,,,0.1744615,4.492261,1.736171,,65.9922682260747,51.5774822329709,18.3661134972503
0.517, 0.53,0.53,,,0.1746089,4.486671,1.736871,,,0.1742773,4.489166,1.737621,,66.4776760965015,52.1158752944096,18.4243032922649
0.521, 1.19,1.19,,,0.1756,4.477256,1.738592,,,0.1748102,4.482892,1.740267,,67.455970894288,53.3630848776201,18.4216890374329
0.527, 1.51,1.51,,,0.1767253,4.470418,1.740212,,,0.1756795,4.477575,1.742319,,68.2795755720568,54.4330203209506,18.4186291127698
0.535, 1.77,1.77,,,0.177882,4.463561,1.741931,,,0.1766018,4.471976,1.74438,,69.1416888552945,55.5658549745974,18.4011438289812
0.541, 1.99,1.99,,,0.1794515,4.457474,1.743317,,,0.1779632,4.466914,1.746041,,69.9167513799828,56.5760570002038,18.4221739808504
0.548, 2.09,2.09,,,0.1808145,4.45156,1.744923,,,0.1791976,4.461498,1.747778,,70.7417767370594,57.5609804963954,18.4909659367092
0.555, 2.09,2.09,,,0.1815082,4.44553,1.746939,,,0.179844,4.45546,1.749769,,71.6566737207341,58.6580181295983,18.5124451735039
0.562, 2.21,2.21,,,0.1818648,4.440161,1.748368,,,0.1800625,4.450663,1.751339,,72.3801683186238,59.5324599039448,18.5244236174275
0.569, 2.01,2.01,,,0.1826908,4.434795,1.750476,,,0.1810181,4.44434,1.753154,,73.3291547754974,60.6547624061845,18.5173612020222
0.576, 1.81,1.81,,,0.1834911,4.429487,1.752445,,,0.1819547,4.438078,1.754838,,74.2642964393087,61.7433306050523,18.5285627119493
0.583, 1.56,1.56,,,0.1835395,4.424819,1.754394,,,0.1821872,4.432246,1.756449,,75.1313821001237,62.7276837804641,18.5384357501198
0.59, 1.2,1.2,,,0.1845816,4.420663,1.756155,,,0.1835255,4.426381,1.757721,,75.999772327034,63.7906046197122,18.493592144372
0.598, 0.93,0.93,,,0.1852469,4.416768,1.757623,,,0.1844159,4.421189,1.758831,,76.7656550777332,64.6480392234986,18.5570206943342
0.604, 0.77,0.77,,,0.1858125,4.412994,1.758762,,,0.1851155,4.416643,1.75976,,77.434303258114,65.3638566889748,18.6464688492156
0.611, 0.73,0.73,,,0.186745,4.409842,1.75935,,,0.1860733,4.413314,1.760299,,77.9226276192352,65.9058868260453,18.719997541132
0.619, 0.86,0.86,,,0.1874079,4.406833,1.75959,,,0.1866137,4.4109,1.760706,,78.2762948046168,66.2421028785831,18.8170750171039
0.626, 0.95,0.95,,,0.1877649,4.404476,1.75981,,,0.1868787,4.408991,1.761054,,78.5556153829516,66.4761119832251,18.89716752063
0.632, 1.05,1.05,,,0.1878366,4.402791,1.759936,,,0.1868577,4.407771,1.761317,,78.7340540700527,66.5748423649302,18.9688554766163
0.639, 1.3,1.3,,,0.1876118,4.401227,1.75979,,,0.1864074,4.40737,1.761506,,78.7928073556582,66.4943690783685,19.0487413669257
0.647, 1.59,1.59,,,0.1873298,4.400358,1.759409,,,0.1858614,4.407869,1.761528,,78.7199155788642,66.2517402752338,19.1516159657944
0.653, 1.89,1.89,,,0.1869568,4.399509,1.759007,,,0.185216,4.408451,1.761555,,78.6348797260639,65.9879310560724,19.2496308852039
0.66, 2.24,2.24,,,0.1862053,4.399381,1.758415,,,0.1841608,4.409979,1.761472,,78.4114437539629,65.5334366209689,19.3437252761388
0.668, 2.73,2.73,,,0.1858242,4.39987,1.757292,,,0.1833717,4.412745,1.761046,,78.0064955097199,64.9171554994974,19.4114004960994
0.674, 3.09,3.09,,,0.1851684,4.399543,1.75668,,,0.1824167,4.414112,1.760954,,77.8061660669381,64.5732145032233,19.4431796578758
0.681, 3.26,3.26,,,0.1850323,4.400445,1.756081,,,0.1821552,4.41583,1.76062,,77.5540706218773,64.2051151285271,19.4667318570259
0.688, 3.65,3.65,,,0.1844978,4.401569,1.754982,,,0.1813285,4.418778,1.760112,,77.120975168848,63.5603179680643,19.5222186047518
0.695, 3.59,3.59,,,0.184815,4.401583,1.755046,,,0.1817098,4.418516,1.76009,,77.159435962994,63.6087030267982,19.4919045185115
0.703, 3.93,3.93,,,0.184948,4.402411,1.753978,,,0.1815663,4.420975,1.759528,,76.7976067017814,63.1822191967015,19.5080186418625
0.71, 3.8,3.8,,,0.1855307,4.403004,1.754037,,,0.1822699,4.420917,1.759385,,76.8060761361166,63.233479764996,19.4884962542105
0.716, 3.88,3.88,,,0.1866545,4.403624,1.753436,,,0.1833272,4.421932,1.758897,,76.6563583936762,63.1398720250258,19.4679510457589
0.724, 3.92,3.92,,,0.1873989,4.404138,1.753058,,,0.1840316,4.422637,1.758561,,76.5523072947557,63.1155975333911,19.4373825349791
0.731, 3.88,3.88,,,0.1886806,4.405305,1.752581,,,0.1853478,4.423605,1.758013,,76.4092763073266,63.0609765121185,19.4141137886717
0.737, 4.16,4.16,,,0.189252,4.406498,1.751456,,,0.1856746,4.426157,1.757283,,76.0325025926259,62.7345003090661,19.3908604102895
0.744, 4.18,4.18,,,0.1903316,4.407739,1.750841,,,0.1867493,4.427468,1.756685,,75.8384705840836,62.5922206424248,19.3731292396975
0.752, 4.4,4.4,,,0.1907536,4.409564,1.74971,,,0.1869914,4.430346,1.755856,,75.4123487540028,62.2098598331385,19.3384148042069
0.758, 4.59,4.59,,,0.191718,4.411428,1.748485,,,0.1878069,4.433119,1.754895,,75.0009459811737,61.8494171002888,19.3091867180145
0.765, 4.84,4.84,,,0.1919584,4.413308,1.747265,,,0.1878597,4.436168,1.754014,,74.5478312442441,61.4164924019839,19.270109499313
0.772, 4.96,4.96,,,0.1926773,4.415821,1.746024,,,0.1885038,4.439276,1.752944,,74.0847307710259,60.9867778924997,19.225822553967
0.779, 5.6,5.6,,,0.19185,4.419349,1.743359,,,0.1872332,4.445844,1.751232,,73.1028296334579,59.8337395398502,19.222846299119
0.786, 5.73,5.73,,,0.1919589,4.421843,1.742182,,,0.187273,4.448952,1.750222,,72.6363891978285,59.3936977846282,19.1631658153595
0.794, 6.04,6.04,,,0.1916997,4.425723,1.740063,,,0.1868288,4.45428,1.748548,,71.8338693134408,58.5475876341705,19.1282533043885
0.8, 6.52,6.52,,,0.1911513,4.429183,1.737515,,,0.1859816,4.460041,1.74673,,70.9619547090169,57.5582894019373,19.1191520775727
0.807, 6.72,6.72,,,0.1913715,4.432265,1.735759,,,0.1860795,4.464063,1.745234,,70.3504478896424,56.9940099242646,19.0633016222837
0.814, 7.06,7.06,,,0.1919468,4.436091,1.733113,,,0.1864444,4.469507,1.74307,,69.5187357775544,56.1880920208594,19.0204575543598
0.821, 7.43,7.43,,,0.1922111,4.439194,1.730667,,,0.186453,4.47438,1.741132,,68.7705978578251,55.4909585373378,18.9706005899007
0.829, 7.91,7.91,,,0.1928367,4.443031,1.727362,,,0.1867657,4.480507,1.738511,,67.8241180803071,54.5778783839318,18.9323754372744
0.836, 8.3,8.3,,,0.1931938,4.447077,1.724187,,,0.1869202,4.486361,1.735927,,66.9140500402412,53.6153852283503,18.9395317677781
0.842, 8.66,8.66,,,0.1934334,4.450751,1.721258,,,0.1869297,4.491761,1.733473,,66.0687526822721,52.8492531757533,18.8679906608549
0.849, 8.98,8.98,,,0.1937099,4.454407,1.718368,,,0.1870041,4.496969,1.730996,,65.248351363135,52.1209432946327,18.7895493555148
0.856, 9.2,9.2,,,0.1948245,4.457994,1.715578,,,0.1879684,4.501637,1.728462,,64.5080886512995,51.5316106837816,18.7113658898086
0.863, 9.54,9.54,,,0.1950912,4.462226,1.712181,,,0.1880308,4.507491,1.725468,,63.5734251007168,50.7205052518461,18.6091657721016
0.87, 9.95,9.95,,,0.195399,4.466786,1.708095,,,0.1881517,4.514013,1.72197,,62.5228327525775,49.6824702061465,18.5601745340957
0.878, 10.24,10.24,,,0.1959153,4.47025,1.705044,,,0.1884798,4.518867,1.719198,,61.7342942650318,49.0832782175028,18.4254593017498
0.884, 10.64,10.64,,,0.1959182,4.474527,1.701031,,,0.1882747,4.525097,1.715675,,60.7137820691602,48.1662570450553,18.3112448816271
0.891, 10.8,10.8,,,0.1967737,4.47874,1.697707,,,0.1890743,4.53009,1.712475,,59.8880532026187,47.506324185813,18.1914399518244
0.898, 11.14,11.14,,,0.1965795,4.483047,1.693699,,,0.1887532,4.536068,1.708858,,58.8905314228536,46.6014812403168,18.058575700692
0.905, 11.44,11.44,,,0.1959469,4.488211,1.689193,,,0.1880898,4.542698,1.704757,,57.7716508452928,45.4772936059186,17.9672765645971
0.912, 11.59,11.59,,,0.1951449,4.492485,1.685907,,,0.1873037,4.547739,1.701592,,56.9117642036626,44.6857395899382,17.8315487567349
0.92, 11.86,11.86,,,0.1944816,4.496923,1.68177,,,0.1866504,4.553497,1.697767,,55.9187230278683,43.716856792566,17.700374977375
0.927, 11.92,11.92,,,0.1933892,4.502687,1.677551,,,0.1857715,4.559601,1.693599,,54.8532681885087,42.6306347636129,17.5605131976327
0.934, 12.13,12.13,,,0.192528,4.507174,1.6734,,,0.1850038,4.565098,1.689685,,53.8814723155365,41.6527019658422,17.4344330317046
0.941, 12.13,12.13,,,0.1909419,4.512349,1.669712,,,0.1836548,4.570336,1.685989,,52.9440698591729,40.6543298275491,17.3237122532452
0.948, 12.28,12.28,,,0.190064,4.516849,1.665568,,,0.1829213,4.575553,1.681996,,51.9986658364192,39.7025190875323,17.1988956722784
0.956, 12.54,12.54,,,0.1893279,4.521235,1.660751,,,0.182155,4.581226,1.677479,,50.9565087716702,38.7180566290968,17.1076272720339
0.962, 12.64,12.64,,,0.1891528,4.524784,1.657237,,,0.1820475,4.585339,1.673962,,50.1910119266483,38.0880195070197,16.9339304436322
0.969, 12.81,12.81,,,0.1879479,4.529133,1.652798,,,0.1809443,4.590539,1.66965,,49.2106749023568,37.150477031782,16.7831420690691
0.976, 12.97,12.97,,,0.1879123,4.533548,1.647862,,,0.1809396,4.595721,1.664873,,48.2190236700199,36.2476831429798,16.7047519901463
0.983, 13.3,13.3,,,0.1877248,4.536407,1.643389,,,0.1807123,4.600232,1.660637,,47.343010952208,35.5481454329372,16.4951505658242
0.99, 13.26,13.26,,,0.1870214,4.540475,1.639883,,,0.1802458,4.604229,1.656846,,46.5560912194506,34.9187025373014,16.2197641763418
0.998, 13.49,13.49,,,0.1863391,4.543985,1.635252,,,0.1795725,4.608902,1.652313,,45.623268404798,34.1514264280502,16.0192930071387
1.004, 13.51,13.51,,,0.1853527,4.547218,1.632271,,,0.1787493,4.612307,1.649009,,44.9339213367135,33.6842585772944,15.6860019830315
1.011, 13.44,13.44,,,0.1845468,4.550194,1.630016,,,0.1781151,4.615112,1.646209,,44.3596629529411,33.4361997739207,15.2568441339491
1.019, 13.29,13.29,,,0.1841346,4.554064,1.627059,,,0.1779534,4.618362,1.642712,,43.6864624516053,33.0259956992577,14.9000282314478
1.025, 13.36,13.36,,,0.1833447,4.55632,1.62466,,,0.1772656,4.621104,1.639866,,43.1124226338802,32.8277870301541,14.4181003423063
1.032, 13.25,13.25,,,0.1835395,4.559351,1.622145,,,0.1775872,4.623708,1.6368,,42.5608882888441,32.6390996444887,14.0404421181327
1.04, 13.3,13.3,,,0.1832744,4.561525,1.619808,,,0.1773536,4.626216,1.63396,,42.0243906048474,32.5437570365176,13.5717178380631
1.046, 13.54,13.54,,,0.183269,4.563442,1.616139,,,0.1772508,4.629408,1.6302,,41.333308668762,32.1781370204211,13.2839303867139
1.053, 13.65,13.65,,,0.183343,4.564914,1.614037,,,0.17727,4.631535,1.627611,,40.8673361010777,32.2048840404666,12.811391446099
1.061, 13.84,13.84,,,0.1837785,4.567558,1.609552,,,0.1776655,4.635154,1.622982,,40.0642424808157,31.7229254154747,12.5421846700962
