経過時間(s),めり込み量(mm),Y軸めり込み量(mm),,デバイス先端,X座標,Y座標,Z座標,,仮想物体との接触位置,X座標,Y座標,Z座標,,接触点の法線と床の法線とのなす角,接触点の法線とデバイスの方向ベクトルのなす角,床の法線とデバイスの方向ベクトルのなす角
0.001, 0.25,-0.25,,,0.483562,1.574574,1.426596,,,0.4828884,1.573559,1.426443,,46.050527461344,14.3312852252767,34.3088076425261
0.011, 0.65,0.65,,,0.4818375,1.570105,1.427236,,,0.4836142,1.572806,1.427646,,46.050527461344,14.59940087859,34.0737193680254
0.022, 1.35,1.35,,,0.4817089,1.565405,1.428373,,,0.485349,1.571007,1.429213,,46.050527461344,14.8437987006704,33.756590278592
0.035, 1.96,1.96,,,0.4811002,1.56179,1.42995,,,0.4863613,1.569957,1.431165,,46.050527461344,15.0220751707832,33.5289503251739
0.045, 2.58,2.58,,,0.4801636,1.558475,1.430636,,,0.4870532,1.569239,1.432232,,46.050527461344,15.1680567998516,33.3619795253702
0.056, 3.21,3.21,,,0.4789032,1.555387,1.430533,,,0.4874596,1.568817,1.432549,,46.050527461344,15.3186539291231,33.2651650116739
0.066, 3.68,3.68,,,0.4780505,1.553035,1.429138,,,0.4878311,1.568432,1.431514,,46.050527461344,15.48073260607,33.2323766894757
0.078, 3.97,3.97,,,0.4774367,1.551699,1.428543,,,0.4879469,1.568312,1.43117,,46.050527461344,15.6634777273229,33.1707478943097
0.088, 4.16,4.16,,,0.4774511,1.550394,1.427729,,,0.4884259,1.567815,1.430529,,46.050527461344,15.8218612720316,33.0930886456077
0.1, 4.15,4.15,,,0.4778408,1.550054,1.428079,,,0.4887732,1.567455,1.430857,,46.050527461344,15.8598320001184,33.0160919252368
0.111, 3.95,3.95,,,0.4780962,1.551124,1.428963,,,0.4885105,1.567727,1.431568,,46.050527461344,15.8383852067214,32.9462942240507
0.122, 3.68,3.68,,,0.4782991,1.55281,1.429611,,,0.4880084,1.568248,1.432001,,46.050527461344,15.7280725320535,32.9918857354918
0.133, 3.58,3.58,,,0.4781121,1.55367,1.429605,,,0.487574,1.568699,1.431901,,46.050527461344,15.658682934659,32.9964653772029
0.144, 3.49,3.49,,,0.4780152,1.554431,1.430098,,,0.487229,1.569057,1.432309,,46.050527461344,15.6094253192829,32.9963697545572
0.155, 3.39,3.39,,,0.4778467,1.555232,1.430334,,,0.4868292,1.569471,1.432478,,46.050527461344,15.5634393644281,33.0237895482172
0.166, 3.39,3.39,,,0.4778719,1.555226,1.429878,,,0.4868466,1.569453,1.432014,,46.050527461344,15.5555590338925,33.0187625291279
0.178, 3.39,3.39,,,0.4772967,1.55584,1.429589,,,0.4862657,1.570056,1.431713,,46.050527461344,15.5346091367438,33.0159860573076
0.19, 3.39,3.39,,,0.4773352,1.555792,1.428898,,,0.4863061,1.570014,1.431026,,46.050527461344,15.5453683919345,33.0148966421653
0.2, 3.4,3.4,,,0.4766311,1.556468,1.427459,,,0.4856266,1.570719,1.429602,,46.050527461344,15.5447314768121,33.0379416997836
0.211, 3.41,3.41,,,0.4758396,1.557219,1.425935,,,0.4848682,1.571505,1.428096,,46.050527461344,15.5369040802411,33.0755213995513
0.222, 3.52,3.52,,,0.4735296,1.558833,1.421638,,,0.4828742,1.573574,1.423895,,46.050527461344,15.5047817014684,33.1706078754356
0.233, 3.64,3.64,,,0.4710349,1.560602,1.416474,,,0.4807168,1.575812,1.418842,,46.050527461344,15.4639371713683,33.2979362583997
0.244, 3.67,3.67,,,0.4677596,1.563756,1.411231,,,0.4775634,1.579083,1.413656,,46.050527461344,15.4071202443386,33.4424596421209
0.256, 3.78,3.78,,,0.4646537,1.566199,1.407163,,,0.4747782,1.581972,1.40967,,46.050527461344,15.3389344677518,33.5364362122959
0.266, 3.88,3.88,,,0.4617788,1.568468,1.403574,,,0.4721931,1.584654,1.406136,,46.050527461344,15.2693638703494,33.5885642145909
0.278, 3.9,3.9,,,0.4589028,1.57136,1.400084,,,0.4693676,1.587585,1.402638,,46.050527461344,15.1914672725803,33.6405931791456
0.289, 4,4,,,0.4559764,1.573646,1.396163,,,0.4667461,1.590304,1.39879,,46.050527461344,15.1404918646757,33.7021707478943
0.3, 4.03,4.03,,,0.4530573,1.576508,1.391965,,,0.4639057,1.593251,1.394622,,46.050527461344,15.1121585332397,33.767337580952
0.311, 4.14,4.14,,,0.4502624,1.578628,1.387679,,,0.4614221,1.595827,1.390431,,46.050527461344,15.1102853539119,33.8155450547724
0.322, 4.25,4.25,,,0.4477355,1.580496,1.383538,,,0.4591862,1.598146,1.38638,,46.050527461344,15.1391719306554,33.8207599040586
0.333, 4.27,4.27,,,0.4453346,1.582844,1.379363,,,0.4568323,1.600588,1.382239,,46.050527461344,15.1920410084546,33.8022398466395
0.344, 4.28,4.28,,,0.4428664,1.58529,1.375473,,,0.4544033,1.603108,1.378364,,46.050527461344,15.2131394622137,33.7844950156696
0.355, 4.3,4.3,,,0.440385,1.58778,1.3719,,,0.4519524,1.60565,1.374789,,46.050527461344,15.2047690656188,33.7716952415212
0.367, 4.4,4.4,,,0.4369811,1.590577,1.367648,,,0.4488443,1.608874,1.370595,,46.050527461344,15.15293476145,33.8069287713742
0.377, 4.42,4.42,,,0.4339452,1.593595,1.363747,,,0.4458825,1.611947,1.366706,,46.050527461344,15.081660031897,33.8886485674248
0.389, 4.44,4.44,,,0.4308324,1.596683,1.359143,,,0.4428511,1.615091,1.362121,,46.050527461344,15.0046991700182,33.9865524962633
0.4, 4.55,4.55,,,0.4275638,1.599301,1.354921,,,0.4399197,1.618132,1.357991,,46.050527461344,14.91836045867,34.1238085589098
0.411, 4.66,4.66,,,0.4244756,1.601737,1.350664,,,0.437164,1.620991,1.353837,,46.050527461344,14.8599333145883,34.2492757153769
0.422, 4.76,4.76,,,0.421244,1.604326,1.346436,,,0.4342737,1.623989,1.349713,,46.050527461344,14.7752031127448,34.4054001750805
0.433, 4.87,4.87,,,0.4180002,1.606942,1.341696,,,0.4313655,1.627006,1.345066,,46.050527461344,14.6838817785357,34.5508114833691
0.444, 5.06,5.06,,,0.4140101,1.609704,1.33693,,,0.4279664,1.630532,1.340452,,46.050527461344,14.5757120756603,34.7087698488138
0.456, 5.26,5.26,,,0.4102361,1.612246,1.33218,,,0.4247721,1.633846,1.335857,,46.050527461344,14.50147304409,34.8297734767825
0.467, 5.54,5.54,,,0.4069217,1.613708,1.327519,,,0.4222499,1.636462,1.331408,,46.050527461344,14.4958671664847,34.8613016291139
0.478, 5.92,5.92,,,0.4033687,1.614744,1.321821,,,0.4197282,1.639078,1.326023,,46.050527461344,14.5878663969501,34.8277517408444
0.489, 6.13,6.13,,,0.40004,1.616792,1.316668,,,0.4169632,1.641946,1.321061,,46.050527461344,14.6225910777241,34.8660656859274
0.502, 6.41,6.41,,,0.3957189,1.619258,1.311051,,,0.41348,1.645559,1.315691,,46.050527461344,14.5820607363171,34.977247502143
0.512, 6.43,6.43,,,0.3915147,1.62351,1.30531,,,0.4093977,1.649794,1.309959,,46.050527461344,14.4202262386263,35.1702857181887
0.546, 6.61,6.61,,,0.3867791,1.627088,1.300301,,,0.4052727,1.654073,1.305081,,46.050527461344,14.2594213919242,35.355452141435
0.554, 6.94,6.94,,,0.3683229,1.643833,1.274056,,,0.3881044,1.671882,1.279314,,46.050527461344,13.8856777198097,36.1836125552534
0.566, 6.96,6.96,,,0.3632594,1.648934,1.266137,,,0.3832042,1.676966,1.271537,,46.050527461344,13.8347842741729,36.4606142844296
0.577, 6.7,6.7,,,0.3578509,1.656336,1.256507,,,0.3772385,1.683154,1.261863,,46.050527461344,13.6890715837956,36.9373068337179
0.588, 6.52,6.52,,,0.3527098,1.662934,1.249202,,,0.3717328,1.688865,1.254484,,46.050527461344,13.4874452588812,37.3515133991232
0.599, 6.06,6.06,,,0.3486707,1.670297,1.242248,,,0.3664905,1.694303,1.247121,,46.050527461344,13.2084098409363,37.6465570724899
0.61, 5.78,5.78,,,0.3444882,1.67655,1.237027,,,0.3615831,1.699394,1.241601,,46.050527461344,12.9468801973469,37.8281342314273
0.621, 5.51,5.51,,,0.3404608,1.682619,1.230343,,,0.3568198,1.704335,1.234641,,46.050527461344,12.7318479190122,37.9783369172853
0.633, 5.51,5.51,,,0.3406523,1.682398,1.229836,,,0.3570048,1.704143,1.234125,,46.050527461344,12.7494698065804,37.9271992923924
0.644, 5.25,5.25,,,0.3366314,1.688389,1.222373,,,0.3522692,1.709056,1.22649,,46.050527461344,12.6765805911073,38.1055594323202
0.655, 4.9,4.9,,,0.3324921,1.695142,1.214288,,,0.3471466,1.71437,1.21816,,46.050527461344,12.5891977146188,38.3133337810902
0.666, 4.62,4.62,,,0.3280379,1.701685,1.206336,,,0.3419456,1.719765,1.210004,,46.050527461344,12.4411200713072,38.5685540376093
0.677, 4.34,4.34,,,0.323663,1.708174,1.199476,,,0.3367993,1.725103,1.202909,,46.050527461344,12.2544151479931,38.7942166513177
0.687, 3.97,3.97,,,0.3201445,1.714385,1.192799,,,0.3322298,1.729843,1.195929,,46.050527461344,12.0881427350126,38.9866333201662
0.699, 3.79,3.79,,,0.3162417,1.719696,1.185746,,,0.3278193,1.734419,1.188741,,46.050527461344,11.9975283253629,39.1499226481098
0.71, 3.53,3.53,,,0.3123725,1.725572,1.178458,,,0.3231768,1.739234,1.181261,,46.050527461344,11.9384710963478,39.3123479571474
0.721, 3.35,3.35,,,0.3075935,1.731816,1.171402,,,0.3178808,1.744728,1.174086,,46.050527461344,11.8768670606168,39.5315048158524
0.732, 3.06,3.06,,,0.3032674,1.738296,1.164193,,,0.3127308,1.75007,1.166655,,46.050527461344,11.7439165783485,39.7711522414973
0.743, 2.77,2.77,,,0.2988964,1.744859,1.157784,,,0.3075141,1.755482,1.160013,,46.050527461344,11.58675392992,40.0219636110298
経過時間(s),めり込み量(mm),Y軸めり込み量(mm),,デバイス先端,X座標,Y座標,Z座標,,仮想物体との接触位置,X座標,Y座標,Z座標,,接触点の法線と床の法線とのなす角,接触点の法線とデバイスの方向ベクトルのなす角,床の法線とデバイスの方向ベクトルのなす角
0.001, 1,-1,,,0.4972457,1.565691,1.42035,,,0.4940633,1.561967,1.419407,,46.050527461344,12.2031434806415,41.7790980280106
0.01, 0.33,-0.33,,,0.4939185,1.56445,1.418295,,,0.4928671,1.563208,1.417977,,46.050527461344,12.4698580914403,41.5471413951572
0.021, 0.14,0.14,,,0.4912977,1.563844,1.416444,,,0.4917431,1.564374,1.416581,,46.050527461344,12.6624420999188,41.4315609372385
0.032, 0.5,0.5,,,0.4886657,1.564042,1.415487,,,0.4902492,1.565923,1.415975,,46.050527461344,12.6830837847899,41.4432678811502
0.044, 0.77,0.77,,,0.4860009,1.564943,1.415231,,,0.4884237,1.567817,1.415972,,46.050527461344,12.6154316167171,41.4720502975117
0.055, 1.02,1.02,,,0.4836892,1.565543,1.415647,,,0.4869263,1.569371,1.41663,,46.050527461344,12.5140186782901,41.5490026216542
0.066, 1.29,1.29,,,0.4809308,1.566547,1.415264,,,0.4850084,1.57136,1.416495,,46.050527461344,12.4510545811785,41.584143943956
0.077, 1.64,1.64,,,0.4783398,1.566742,1.414871,,,0.4835431,1.57288,1.416436,,46.050527461344,12.4058634895663,41.5877980950603
0.088, 2.01,2.01,,,0.4753462,1.567261,1.413975,,,0.4817104,1.574781,1.415894,,46.050527461344,12.4428788449695,41.5451025837467
0.1, 2.47,2.47,,,0.4725362,1.566935,1.41287,,,0.4803486,1.576194,1.415241,,46.050527461344,12.5254250938866,41.4771661090576
0.112, 2.94,2.94,,,0.4699283,1.566365,1.411663,,,0.4791943,1.577391,1.4145,,46.050527461344,12.6427344433908,41.384558991773
0.122, 3.31,3.31,,,0.4677454,1.566033,1.410699,,,0.4781615,1.578463,1.413904,,46.050527461344,12.7103533142923,41.3183847058408
0.133, 3.49,3.49,,,0.46608,1.566438,1.40994,,,0.4770774,1.579587,1.41333,,46.050527461344,12.7430622355436,41.2663625714751
0.143, 3.68,3.68,,,0.4644648,1.566801,1.409416,,,0.4760356,1.580668,1.412979,,46.050527461344,12.7516213161091,41.1981084929985
0.155, 3.77,3.77,,,0.4631443,1.567549,1.409078,,,0.4749963,1.581746,1.412712,,46.050527461344,12.7060058990065,41.1999765496845
0.166, 3.77,3.77,,,0.4620359,1.568723,1.408167,,,0.473899,1.582884,1.411809,,46.050527461344,12.6924445587869,41.3039286108648
0.177, 4.03,4.03,,,0.4580703,1.570963,1.406069,,,0.4708135,1.586085,1.410006,,46.050527461344,12.7081796066494,41.4861956188891
0.189, 4.12,4.12,,,0.4551527,1.573405,1.403779,,,0.468208,1.588788,1.407844,,46.050527461344,12.734125787037,41.7089724777535
0.199, 4.11,4.11,,,0.4529349,1.575779,1.401862,,,0.4660055,1.591072,1.405947,,46.050527461344,12.726671489539,41.9165965623659
0.211, 4.28,4.28,,,0.4507008,1.576853,1.400279,,,0.4643568,1.592783,1.40456,,46.050527461344,12.7364497588374,42.0112015099271
0.221, 4.38,4.38,,,0.4493327,1.57762,1.398712,,,0.4632916,1.593888,1.403103,,46.050527461344,12.7669909488612,42.0477088700249
0.232, 4.66,4.66,,,0.4470273,1.578017,1.395476,,,0.4618827,1.595349,1.400199,,46.050527461344,12.8822290435573,42.0446899264958
0.244, 4.67,4.67,,,0.4458687,1.579141,1.393876,,,0.4607554,1.596519,1.398633,,46.050527461344,12.9367245601074,42.0427638132034
0.255, 4.95,4.95,,,0.4424921,1.580716,1.390131,,,0.4582641,1.599103,1.3952,,46.050527461344,12.9903569115251,42.0965993627434
0.266, 5.13,5.13,,,0.4396722,1.582363,1.38707,,,0.4560387,1.601411,1.392355,,46.050527461344,13.0287989226515,42.155130667207
0.277, 5.22,5.22,,,0.4374395,1.584042,1.384048,,,0.4541113,1.603411,1.389453,,46.050527461344,13.060512343859,42.2179376699721
0.288, 5.32,5.32,,,0.4347193,1.586191,1.380538,,,0.4517092,1.605903,1.386065,,46.050527461344,13.0903858829101,42.2659675588791
0.299, 5.42,5.42,,,0.4319109,1.588434,1.377324,,,0.4492248,1.60848,1.382995,,46.050527461344,13.1544812300715,42.3447572038572
0.31, 5.51,5.51,,,0.4281652,1.591697,1.372986,,,0.445803,1.612029,1.378787,,46.050527461344,13.1767467923725,42.4801008135893
0.321, 5.5,5.5,,,0.4249301,1.595104,1.368981,,,0.4425931,1.615359,1.374788,,46.050527461344,13.1491075788915,42.6281588201076
0.333, 5.31,5.31,,,0.4215801,1.599889,1.36516,,,0.438697,1.619401,1.370768,,46.050527461344,13.0879731186529,42.7896996196723
0.344, 5.12,5.12,,,0.4183209,1.604572,1.36083,,,0.4348831,1.623357,1.366233,,46.050527461344,13.0192972760068,42.9211295311189
0.355, 4.95,4.95,,,0.4147379,1.609524,1.356812,,,0.430753,1.627641,1.361999,,46.050527461344,12.929155856944,42.974213759871
0.366, 4.78,4.78,,,0.4120666,1.613482,1.353305,,,0.4275393,1.630975,1.358294,,46.050527461344,12.8797018736347,42.9809278356383
0.377, 4.61,4.61,,,0.4088839,1.617927,1.348558,,,0.4238285,1.634824,1.353359,,46.050527461344,12.8399450511297,42.9669259482294
0.388, 4.45,4.45,,,0.4057954,1.622245,1.344279,,,0.4202183,1.638569,1.348904,,46.050527461344,12.8254607816241,42.9340044373461
0.399, 4.38,4.38,,,0.4027628,1.625878,1.339286,,,0.4169477,1.641962,1.343832,,46.050527461344,12.8252917344468,42.8804216047984
0.411, 4.22,4.22,,,0.3996131,1.630266,1.334826,,,0.4132742,1.645773,1.339202,,46.050527461344,12.8244601589385,42.8488490562386
0.423, 4.24,4.24,,,0.3957019,1.634243,1.329926,,,0.4094011,1.649791,1.3343,,46.050527461344,12.7890097705853,42.8448568107799
0.433, 4.15,4.15,,,0.3929767,1.637648,1.325492,,,0.4064136,1.65289,1.329776,,46.050527461344,12.7706843735521,42.8561505282582
0.444, 4.17,4.17,,,0.3897536,1.640906,1.320922,,,0.4032321,1.65619,1.325226,,46.050527461344,12.7856305345875,42.8681033589731
0.455, 4.09,4.09,,,0.3871621,1.644136,1.316947,,,0.400395,1.659133,1.321183,,46.050527461344,12.8089735592001,42.8905029637328
0.466, 4.19,4.19,,,0.3840425,1.646656,1.312488,,,0.397603,1.662029,1.316832,,46.050527461344,12.8199360125129,42.8852095672734
0.477, 4.21,4.21,,,0.3815624,1.649134,1.307879,,,0.3951629,1.66456,1.312249,,46.050527461344,12.8523862403566,42.8767128121823
0.489, 4.31,4.31,,,0.3784344,1.651649,1.302965,,,0.3923686,1.667459,1.30747,,46.050527461344,12.9218731679441,42.8847826804621
0.499, 4.5,4.5,,,0.3743839,1.65455,1.29702,,,0.38893,1.671026,1.301768,,46.050527461344,13.0181600495416,42.9605158158718
0.511, 4.49,4.49,,,0.3711168,1.658004,1.290468,,,0.3856686,1.674409,1.295283,,46.050527461344,13.1564619848757,43.1337225782142
0.522, 4.48,4.48,,,0.3671698,1.662179,1.284075,,,0.3817284,1.678496,1.288951,,46.050527461344,13.2773887732184,43.3363606248712
0.533, 4.38,4.38,,,0.3638984,1.66629,1.277967,,,0.3781669,1.682191,1.282791,,46.050527461344,13.3723710887207,43.528869501271
0.544, 4.2,4.2,,,0.3616837,1.669844,1.273125,,,0.3753846,1.685077,1.277743,,46.050527461344,13.3306224123544,43.5852048999776
0.556, 4.21,4.21,,,0.3584751,1.673113,1.268968,,,0.3722066,1.688374,1.273549,,46.050527461344,13.2114586665422,43.5672244274879
0.566, 4.04,4.04,,,0.3560051,1.676824,1.264052,,,0.3691956,1.691497,1.268416,,46.050527461344,13.1163107189571,43.5156565006893
0.577, 3.96,3.96,,,0.3532925,1.680222,1.258633,,,0.3662172,1.694587,1.262923,,46.050527461344,13.1522451969542,43.5496810870929
0.589, 3.78,3.78,,,0.3501381,1.684797,1.250597,,,0.3624834,1.69846,1.254766,,46.050527461344,13.3437833327452,43.7219111324112
0.6, 3.48,3.48,,,0.3470666,1.690094,1.242476,,,0.3584761,1.702617,1.246415,,46.050527461344,13.5945614051065,44.0277157685158
0.611, 2.97,2.97,,,0.3441241,1.696699,1.233646,,,0.3539322,1.707331,1.237101,,46.050527461344,13.8395534536281,44.4501561267364
0.622, 2.35,2.35,,,0.341413,1.703857,1.227915,,,0.3492393,1.712199,1.230671,,46.050527461344,13.8410808546388,44.9311824309326
0.633, 1.72,1.72,,,0.3385929,1.711193,1.224409,,,0.3443775,1.717242,1.226398,,46.050527461344,13.5708589417988,45.4041559423213
0.644, 1.28,1.28,,,0.3356084,1.717354,1.219905,,,0.3399533,1.721832,1.221382,,46.050527461344,13.4508337384015,45.7848945817249
0.655, 1.04,1.04,,,0.3324565,1.722314,1.214074,,,0.3360012,1.725931,1.215283,,46.050527461344,13.5178822885231,46.0795694248867
0.666, 0.92,0.92,,,0.3292602,1.726481,1.207906,,,0.3323997,1.729667,1.208985,,46.050527461344,13.6506329877637,46.2562015270026
0.678, 0.99,0.99,,,0.325693,1.72971,1.201352,,,0.3290684,1.733123,1.20253,,46.050527461344,13.8571881478007,46.4128587414466
0.689, 1.03,1.03,,,0.3218014,1.73346,1.193342,,,0.3253271,1.737004,1.194599,,46.050527461344,14.1598918781084,46.6532335822178
0.7, 0.85,0.85,,,0.3179564,1.738705,1.185234,,,0.3208834,1.741614,1.186297,,46.050527461344,14.4758530052262,47.0413966370426
0.711, 0.42,0.42,,,0.3131879,1.746639,1.176482,,,0.3146586,1.748071,1.177025,,46.050527461344,14.8149906711002,47.6780863631862
0.722, 0.18,0.18,,,0.3079582,1.753774,1.169332,,,0.3085841,1.754372,1.169564,,46.050527461344,15.0278193597153,48.2367924066512
0.733, 0.11,-0.11,,,0.3039846,1.759903,1.163693,,,0.3036008,1.759541,1.163551,,46.050527461344,15.1194668354482,48.6029588378661
0.745, 0.42,-0.42,,,0.3006688,1.765531,1.159365,,,0.299175,1.764132,1.158816,,46.050527461344,15.0394699545679,48.7764832039961
0.755, 0.54,-0.54,,,0.2969994,1.770137,1.155197,,,0.2950967,1.768363,1.154505,,46.050527461344,14.923267949452,48.867293981579
0.767, 0.7,-0.7,,,0.2938606,1.774503,1.151021,,,0.2913951,1.772203,1.150133,,46.050527461344,14.7862611887033,48.8121709414163
