経過時間(s),めり込み量(mm),Y軸めり込み量(mm),,デバイス先端,X座標,Y座標,Z座標,,仮想物体との接触位置,X座標,Y座標,Z座標,,接触点の法線と床の法線とのなす角,接触点の法線とデバイスの方向ベクトルのなす角,床の法線とデバイスの方向ベクトルのなす角
0.001, 0.79,-0.79,,,0.1645915,1.819457,1.222095,,,0.1629968,1.815927,1.222913,,44.8235181620417,20.743958413256,26.8013712742742
0.011, 0.5,-0.5,,,0.1636679,1.819157,1.223433,,,0.1626495,1.816909,1.223955,,44.8235181620417,20.700304967938,26.8658738714536
0.022, 0.17,-0.17,,,0.1618369,1.818885,1.224359,,,0.1614952,1.818134,1.224533,,44.8235181620417,20.6871414862264,26.9395989313031
0.033, 0.16,0.16,,,0.1600829,1.818411,1.225012,,,0.1604091,1.819125,1.224848,,44.8235181620417,20.7220130160635,26.9756691593062
0.044, 0.4,0.4,,,0.1586727,1.81825,1.225621,,,0.1594884,1.820035,1.225214,,44.8235181620417,20.7975497835399,26.9524943280972
0.055, 0.63,0.63,,,0.1584241,1.817284,1.226104,,,0.1596938,1.820071,1.22547,,44.8235181620417,20.8507791538079,26.8813254664734
0.066, 1.02,1.02,,,0.1579105,1.815602,1.226922,,,0.1599767,1.820162,1.225882,,44.8235181620417,20.8832037684429,26.7815654337796
0.078, 1.8,1.8,,,0.1576815,1.812889,1.230131,,,0.161281,1.820937,1.228282,,44.8235181620417,20.906692788345,26.5801380381193
0.089, 2.38,2.38,,,0.1577247,1.810476,1.232163,,,0.1624379,1.821119,1.229697,,44.8235181620417,20.8974549577496,26.4422399377087
0.1, 2.73,2.73,,,0.158011,1.808923,1.233497,,,0.1633799,1.821125,1.230648,,44.8235181620417,20.8752892869624,26.3623216040016
0.11, 3.06,3.06,,,0.1585381,1.807506,1.235137,,,0.164545,1.821205,1.231926,,44.8235181620417,20.868023673435,26.3177785265689
0.122, 3.46,3.46,,,0.158085,1.806476,1.236963,,,0.1648733,1.821954,1.233313,,44.8235181620417,20.8012141799277,26.3535601790876
0.133, 3.76,3.76,,,0.1569721,1.805447,1.237186,,,0.1643727,1.822256,1.233239,,44.8235181620417,20.813107246489,26.4009565679666
0.143, 3.83,3.83,,,0.1566276,1.804868,1.236724,,,0.164193,1.822015,1.232718,,44.8235181620417,20.8483698046452,26.4139253892923
0.155, 4.52,4.52,,,0.1553692,1.802235,1.238127,,,0.1642891,1.822452,1.233434,,44.8235181620417,20.9127118923835,26.3828633973588
0.166, 5.43,5.43,,,0.1532713,1.79809,1.238603,,,0.1639985,1.822394,1.233061,,44.8235181620417,21.0912325417524,26.3034556202779
0.177, 5.89,5.89,,,0.1528026,1.795905,1.239347,,,0.1644386,1.822305,1.233375,,44.8235181620417,21.1824719136937,26.2410925797965
0.189, 6.23,6.23,,,0.153047,1.793787,1.239766,,,0.1653415,1.821734,1.23347,,44.8235181620417,21.2395415577157,26.1872058038392
0.199, 6.49,6.49,,,0.1532995,1.792347,1.240332,,,0.1660743,1.821442,1.23379,,44.8235181620417,21.2736037101587,26.1441004811868
0.211, 6.84,6.84,,,0.1536298,1.790217,1.24086,,,0.1670599,1.820882,1.233984,,44.8235181620417,21.321761665109,26.0855623465342
0.221, 7.19,7.19,,,0.1534854,1.788034,1.240878,,,0.16756,1.820294,1.233652,,44.8235181620417,21.3640354122531,26.0115948149759
0.233, 7.37,7.37,,,0.1538661,1.786462,1.240766,,,0.1682677,1.819588,1.233362,,44.8235181620417,21.414824697508,25.9381053966462
0.244, 7.34,7.34,,,0.1548854,1.785559,1.2402,,,0.169185,1.818561,1.232827,,44.8235181620417,21.4473893310171,25.8756279504993
0.254, 7.37,7.37,,,0.1556709,1.784795,1.240163,,,0.1700075,1.817935,1.232764,,44.8235181620417,21.4688702753591,25.8432272415257
0.266, 7.24,7.24,,,0.1561847,1.784798,1.239412,,,0.1702645,1.817327,1.232161,,44.8235181620417,21.4798207758412,25.8458210057909
0.277, 7.17,7.17,,,0.1566765,1.784841,1.239314,,,0.1706358,1.817054,1.232146,,44.8235181620417,21.4866475497266,25.8587590912661
0.288, 6.84,6.84,,,0.157946,1.784347,1.236851,,,0.1713349,1.815094,1.230074,,44.8235181620417,21.5401569577428,25.9021342063833
0.299, 6.41,6.41,,,0.159504,1.784582,1.234731,,,0.172141,1.813388,1.228467,,44.8235181620417,21.6079295078963,25.9784018040806
0.311, 6,6,,,0.161002,1.784569,1.232352,,,0.172857,1.81152,1.22654,,44.8235181620417,21.6673897180612,25.9910530216187
0.321, 5.8,5.8,,,0.1618091,1.784228,1.23075,,,0.1732475,1.810276,1.225172,,44.8235181620417,21.7484828442728,25.9296479151417
0.333, 5.56,5.56,,,0.1635,1.783045,1.228495,,,0.1744238,1.808036,1.223181,,44.8235181620417,21.8539460847649,25.8150168534913
0.344, 5.25,5.25,,,0.1654293,1.781643,1.225551,,,0.1756901,1.805289,1.220562,,44.8235181620417,21.9861085339796,25.6499533839602
0.355, 4.97,4.97,,,0.1673613,1.779612,1.221954,,,0.177011,1.802021,1.217262,,44.8235181620417,22.1207127757547,25.4783756216895
0.366, 4.94,4.94,,,0.1694344,1.776287,1.219027,,,0.1789621,1.798608,1.214386,,44.8235181620417,22.2601066875519,25.2896096888507
0.377, 4.79,4.79,,,0.1728663,1.77295,1.21628,,,0.1820315,1.794613,1.211806,,44.8235181620417,22.3969204954619,25.1017163126542
0.388, 4.89,4.89,,,0.1757945,1.768281,1.213454,,,0.1850767,1.790424,1.208926,,44.8235181620417,22.5640722952736,24.8966193979644
0.399, 4.91,4.91,,,0.1798749,1.763632,1.211158,,,0.1891527,1.785936,1.206656,,44.8235181620417,22.7482329731926,24.7051230970809
0.411, 5.04,5.04,,,0.1835831,1.757781,1.207694,,,0.1930664,1.780699,1.203163,,44.8235181620417,22.9787228229626,24.5283356081657
0.422, 5.18,5.18,,,0.1868773,1.751398,1.203117,,,0.1966089,1.774962,1.198592,,44.8235181620417,23.2476171178196,24.3827535451527
0.433, 5.25,5.25,,,0.1904728,1.744391,1.197381,,,0.2003547,1.768325,1.192952,,44.8235181620417,23.5634074902129,24.2436106428005
0.444, 5.39,5.39,,,0.1928702,1.736878,1.190265,,,0.2030538,1.761455,1.185935,,44.8235181620417,23.9345206857965,24.1437464497247
0.455, 5.46,5.46,,,0.195269,1.729438,1.182646,,,0.2056286,1.754352,1.178465,,44.8235181620417,24.2889323617769,24.0591460214718
0.466, 5.57,5.57,,,0.1983313,1.721589,1.175526,,,0.2089507,1.747031,1.171433,,44.8235181620417,24.5778613084593,24.0113773872933
0.477, 5.81,5.81,,,0.2019175,1.713003,1.168978,,,0.2129904,1.739525,1.164859,,44.8235181620417,24.8309761592254,23.9248047419725
0.488, 6.09,6.09,,,0.2068736,1.703458,1.1629,,,0.2184439,1.731315,1.158701,,44.8235181620417,25.0859829723389,23.7538775552022
0.5, 6.41,6.41,,,0.2133185,1.692672,1.156809,,,0.2253687,1.722052,1.152526,,44.8235181620417,25.4163421378264,23.4404043244203
0.511, 6.72,6.72,,,0.2201173,1.681594,1.150564,,,0.2325868,1.712492,1.146224,,44.8235181620417,25.7930424279956,23.0570650905626
0.522, 7.07,7.07,,,0.227443,1.66966,1.143947,,,0.2403406,1.702271,1.139524,,44.8235181620417,26.1827251998684,22.6100138539
0.533, 7.32,7.32,,,0.234978,1.658693,1.138055,,,0.2481528,1.692565,1.133609,,44.8235181620417,26.5219806865023,22.2398773753405
0.544, 7.44,7.44,,,0.2426681,1.648116,1.131696,,,0.2559157,1.682612,1.127296,,44.8235181620417,26.7998857081711,21.9535302400925
0.555, 7.3,7.3,,,0.2498618,1.639089,1.124674,,,0.2627598,1.672954,1.120482,,44.8235181620417,27.0438959170269,21.7486672593753
0.566, 7.3,7.3,,,0.2566004,1.629692,1.118065,,,0.2694678,1.663631,1.114005,,44.8235181620417,27.2749116913483,21.6064354040569
0.577, 7.15,7.15,,,0.2635816,1.620293,1.110169,,,0.2761628,1.65352,1.106401,,44.8235181620417,27.5755885630762,21.4966127954484
0.589, 7,7,,,0.2702845,1.611102,1.102349,,,0.2825804,1.643692,1.098919,,44.8235181620417,27.9878092510356,21.3239319576574
0.6, 6.76,6.76,,,0.2770977,1.601677,1.093406,,,0.2889234,1.633177,1.090392,,44.8235181620417,28.4789254519024,21.116907222128
0.611, 6.5,6.5,,,0.2838146,1.592315,1.084366,,,0.2951445,1.622662,1.081743,,44.8235181620417,28.9604042561184,20.9128553263521
0.622, 6.16,6.16,,,0.2901394,1.583635,1.075258,,,0.3008229,1.612455,1.072987,,44.8235181620417,29.3801876708259,20.7048743643655
0.633, 5.95,5.95,,,0.2961702,1.575162,1.067322,,,0.3064032,1.603033,1.065241,,44.8235181620417,29.6556116263477,20.4911389681634
経過時間(s),めり込み量(mm),Y軸めり込み量(mm),,デバイス先端,X座標,Y座標,Z座標,,仮想物体との接触位置,X座標,Y座標,Z座標,,接触点の法線と床の法線とのなす角,接触点の法線とデバイスの方向ベクトルのなす角,床の法線とデバイスの方向ベクトルのなす角
0, 0.77,-0.77,,,0.1322785,1.822472,1.194692,,,0.1301095,1.819273,1.194758,,44.8235181620417,29.048424901503,34.1487489939701
0.011, 0.18,0.18,,,0.1321713,1.818582,1.197429,,,0.1326775,1.819334,1.197412,,44.8235181620417,28.9408835760137,33.967410891647
0.022, 1,1,,,0.1328014,1.814562,1.199524,,,0.135572,1.818707,1.19942,,44.8235181620417,28.8458824774917,33.7669516752746
0.033, 1.83,1.83,,,0.1326678,1.811252,1.202037,,,0.1377342,1.818885,1.201833,,44.8235181620417,28.7749680404074,33.5885710447799
0.044, 2.25,2.25,,,0.1332091,1.809038,1.203118,,,0.1394165,1.818419,1.202857,,44.8235181620417,28.7211393210564,33.5046724184447
0.056, 2.59,2.59,,,0.1331434,1.807929,1.204473,,,0.1402922,1.818727,1.204168,,44.8235181620417,28.7009287918648,33.5221167210995
0.067, 2.56,2.56,,,0.1325632,1.808478,1.204363,,,0.139636,1.819117,1.204064,,44.8235181620417,28.7044053580556,33.6283056691707
0.077, 2.63,2.63,,,0.1326119,1.808453,1.205017,,,0.1399071,1.819381,1.204708,,44.8235181620417,28.6892423385201,33.7396787306777
0.088, 3.08,3.08,,,0.1322526,1.807234,1.20694,,,0.1408312,1.820033,1.206554,,44.8235181620417,28.5957899853492,33.8488353958607
0.099, 3.53,3.53,,,0.1325566,1.806742,1.210558,,,0.1424225,1.821394,1.21007,,44.8235181620417,28.4446498560538,33.975607118423
0.111, 3.9,3.9,,,0.1323209,1.806083,1.212673,,,0.1432421,1.822246,1.212095,,44.8235181620417,28.3278399641187,34.0711819528193
0.123, 4.1,4.1,,,0.1329489,1.80565,1.214435,,,0.1444245,1.822619,1.213804,,44.8235181620417,28.2585494044644,34.0971742369825
0.133, 4.49,4.49,,,0.1340209,1.803344,1.21565,,,0.1465532,1.821933,1.214964,,44.8235181620417,28.2720134144912,34.0129955728992
0.143, 4.85,4.85,,,0.1347469,1.801324,1.21671,,,0.1482485,1.821455,1.215983,,44.8235181620417,28.3143076522022,33.8742880950944
0.155, 5.43,5.43,,,0.1365547,1.797603,1.218359,,,0.1515918,1.820212,1.217569,,44.8235181620417,28.3750092492142,33.651350726789
0.166, 6.1,6.1,,,0.1379391,1.792953,1.218997,,,0.154704,1.81843,1.218161,,44.8235181620417,28.4884484428877,33.3678056765701
0.177, 6.67,6.67,,,0.1394262,1.788783,1.2195,,,0.157604,1.816728,1.218654,,44.8235181620417,28.6244323828366,33.0606862290868
0.188, 7.34,7.34,,,0.1401637,1.784232,1.219608,,,0.1600242,1.815074,1.218735,,44.8235181620417,28.7325081706136,32.7943976513257
0.2, 7.93,7.93,,,0.1414238,1.779755,1.219642,,,0.1627401,1.813176,1.218765,,44.8235181620417,28.8503425908956,32.5430398666747
0.211, 8.35,8.35,,,0.1424598,1.77615,1.219159,,,0.1647686,1.811407,1.218293,,44.8235181620417,28.946740463064,32.3336672536835
0.222, 8.62,8.62,,,0.14391,1.772751,1.218097,,,0.1668331,1.809216,1.217258,,44.8235181620417,29.03495235374,32.1636843405396
0.233, 8.98,8.98,,,0.1453604,1.76875,1.217043,,,0.1691565,1.806844,1.216228,,44.8235181620417,29.1262890558744,31.9991177672568
0.244, 9.39,9.39,,,0.1469593,1.763987,1.215323,,,0.1716977,1.803862,1.214552,,44.8235181620417,29.2424432496673,31.8213347782978
0.255, 9.54,9.54,,,0.1490895,1.759881,1.212883,,,0.1741178,1.800483,1.212193,,44.8235181620417,29.3719265572546,31.6550982238094
0.266, 9.69,9.69,,,0.1511463,1.755851,1.210444,,,0.1764696,1.797158,1.209843,,44.8235181620417,29.5063617518524,31.5122140854434
0.277, 9.63,9.63,,,0.1536986,1.751976,1.206915,,,0.1787876,1.793086,1.206402,,44.8235181620417,29.6195618889115,31.3963740803435
0.289, 9.4,9.4,,,0.1577603,1.747985,1.203228,,,0.1821394,1.788149,1.202771,,44.8235181620417,29.6893049485858,31.2584964704998
0.299, 9.3,9.3,,,0.162149,1.743257,1.200057,,,0.1861697,1.783066,1.199613,,44.8235181620417,29.7179746668291,31.1077917657518
0.31, 9.04,9.04,,,0.1663197,1.738687,1.195509,,,0.1896033,1.777447,1.195101,,44.8235181620417,29.7621659895293,30.9938300626214
0.321, 8.64,8.64,,,0.1711986,1.733834,1.189914,,,0.1934156,1.770857,1.189594,,44.8235181620417,29.8562347672556,30.9671137784264
0.333, 8.26,8.26,,,0.1750371,1.729261,1.183978,,,0.1963152,1.764682,1.18376,,44.8235181620417,29.9747317158687,30.994328666417
0.344, 7.9,7.9,,,0.1782841,1.723834,1.176293,,,0.1986872,1.757663,1.176206,,44.8235181620417,30.1365901192209,31.0951695765169
0.355, 7.46,7.46,,,0.1821621,1.718332,1.168414,,,0.2014629,1.750224,1.168462,,44.8235181620417,30.3234777500902,31.1831048445392
0.366, 7.29,7.29,,,0.1857886,1.710523,1.159417,,,0.2046709,1.741715,1.159636,,44.8235181620417,30.5926384223174,31.1942107318206
0.377, 7.24,7.24,,,0.1906903,1.701455,1.150819,,,0.2093748,1.732449,1.151236,,44.8235181620417,30.9187013989365,31.0957057463518
0.388, 7.24,7.24,,,0.1961614,1.691344,1.141803,,,0.214748,1.722409,1.14241,,44.8235181620417,31.2404613564983,30.9146545119659
0.399, 7.44,7.44,,,0.2021241,1.680246,1.133515,,,0.2210586,1.712231,1.134327,,44.8235181620417,31.5637990877144,30.6593932743129
0.411, 7.69,7.69,,,0.2086231,1.668195,1.124944,,,0.2280017,1.701397,1.125949,,44.8235181620417,31.8557828364181,30.3174842592603
0.422, 8.15,8.15,,,0.2150762,1.655019,1.116441,,,0.2353882,1.690318,1.117666,,44.8235181620417,32.1308823579634,29.9786078481148
0.44, 8.54,8.54,,,0.2212471,1.642606,1.108101,,,0.2423237,1.679705,1.109594,,44.8235181620417,32.4574473534725,29.6817097784401
0.446, 8.8,8.8,,,0.2271787,1.629476,1.097226,,,0.2486878,1.667799,1.09912,,44.8235181620417,32.9634687342408,29.4213293141466
0.456, 9.13,9.13,,,0.2329533,1.617275,1.088146,,,0.2550893,1.657119,1.090418,,44.8235181620417,33.3852260735634,29.2093953802878
0.467, 9.25,9.25,,,0.23843,1.605902,1.078202,,,0.2607276,1.646362,1.080844,,44.8235181620417,33.8329005649705,29.0585301660988
0.478, 9.5,9.5,,,0.2443943,1.594115,1.069152,,,0.2671481,1.635693,1.072176,,44.8235181620417,34.2337814316759,28.9352589153888
0.489, 9.74,9.74,,,0.2499165,1.582915,1.060488,,,0.2730943,1.625608,1.06386,,44.8235181620417,34.5833778244254,28.7863095692086
0.499, 9.92,9.92,,,0.2563739,1.571522,1.052007,,,0.2797965,1.615099,1.0557,,44.8235181620417,34.9203247071841,28.5922656078356
0.511, 10.19,10.19,,,0.2630438,1.560024,1.044297,,,0.2868942,1.604879,1.048344,,44.8235181620417,35.2484128348358,28.3814910985562
