経過時間(s),めり込み量(mm),Y軸めり込み量(mm),,デバイス先端,X座標,Y座標,Z座標,,仮想物体との接触位置,X座標,Y座標,Z座標,,接触点の法線と床の法線とのなす角,接触点の法線とデバイスの方向ベクトルのなす角,床の法線とデバイスの方向ベクトルのなす角
0.002, 1.53,1.53,,,0.1049551,3.740504,1.716139,,,0.1059434,3.747964,1.71752,,54.665653142513,43.4524260262074,13.0271169886152
0.01, 2.32,2.32,,,0.1048874,3.733134,1.717917,,,0.1063354,3.74445,1.719977,,55.2529640174261,44.1992013232353,12.7526885331372
0.021, 3.1,3.1,,,0.1047951,3.726392,1.719255,,,0.1066626,3.741527,1.72198,,55.73832407653,44.7950635947512,12.5206371314117
0.033, 3.82,3.82,,,0.1055229,3.720412,1.72017,,,0.1077632,3.73909,1.723518,,56.1406461131102,45.2274452930322,12.379177087448
0.044, 4.64,4.64,,,0.1065403,3.715153,1.720104,,,0.1091968,3.737813,1.724202,,56.3507802921727,45.3303455051095,12.371879030523
0.057, 5.34,5.34,,,0.106442,3.711299,1.719675,,,0.1094651,3.73738,1.72446,,56.4218996349264,45.254083030054,12.4566135012346
0.066, 5.89,5.89,,,0.1072535,3.70817,1.719271,,,0.1105708,3.736923,1.72462,,56.4966594684064,45.1705873848686,12.5607747369523
0.079, 6.7,6.7,,,0.1075176,3.70197,1.719853,,,0.1112632,3.73467,1.726035,,56.865486258229,45.3655858651516,12.6785724449686
0.09, 5.94,5.94,,,0.1083695,3.705374,1.720694,,,0.1117654,3.734377,1.726161,,56.9133590527894,45.4268287546403,12.7256478149656
0.102, 5.21,5.21,,,0.108641,3.709992,1.720741,,,0.1116804,3.735399,1.725492,,56.7462209133556,45.3382890148932,12.7272452254133
0.114, 4.71,4.71,,,0.1102487,3.711518,1.721611,,,0.1130515,3.734502,1.725899,,56.8928650707551,45.478181530486,12.7752716992258
0.126, 3.37,3.37,,,0.1126167,3.717106,1.723225,,,0.1147106,3.733557,1.726287,,57.0468790020639,45.609970026854,12.9163133941144
0.138, 2.02,2.02,,,0.1140217,3.726501,1.722528,,,0.115333,3.736325,1.724349,,56.594382397237,45.1727423094918,13.0716446981227
0.149, 0.55,0.55,,,0.1144988,3.73665,1.721897,,,0.114873,3.739318,1.722384,,56.1023799793501,44.8364886909146,13.1570468198071
0.161, 1.15,-1.15,,,0.1142042,3.747503,1.721795,,,0.1133829,3.741923,1.720802,,55.6721327151253,44.6788650047299,13.1933509817827
0.172, 3.26,-3.26,,,0.1148696,3.760939,1.721486,,,0.1124079,3.745044,1.718748,,55.1534515790828,44.4840304489825,13.2296619739474
0.183, 5.52,-5.52,,,0.1151454,3.775551,1.720843,,,0.1107832,3.748671,1.716373,,54.5464834202854,44.2470980234571,13.2609775366468
0.195, 7.89,-7.89,,,0.1161288,3.790767,1.720031,,,0.1096126,3.75233,1.71385,,53.9295568459553,43.9698196716273,13.3256005159069
0.206, 10.24,-10.24,,,0.1174314,3.807377,1.717759,,,0.1085811,3.757534,1.710066,,53.0434491088311,43.4853099710514,13.4040076703022
0.217, 12.7,-12.7,,,0.1178995,3.824732,1.715276,,,0.106403,3.762973,1.706119,,52.1062447279479,42.9753202504858,13.5438199311745
0.228, 15.13,-15.13,,,0.1183175,3.843661,1.711088,,,0.103864,3.770118,1.700656,,50.8561835408383,42.2132282546704,13.7721053374512
0.239, 17.72,-17.72,,,0.1178723,3.863368,1.706661,,,0.1000175,3.777377,1.694971,,49.5630136159817,41.4592539384577,14.0764337989625
0.251, 20.01,-20.01,,,0.1169957,3.883332,1.700072,,,0.09568325,3.786407,1.687404,,47.9184133926346,40.3930716839717,14.4776834958729
0.262, 22.16,-22.16,,,0.1161373,3.902706,1.692755,,,0.09128976,3.795614,1.679146,,46.1958943734042,39.2183304058384,14.9394640350707
0.273, 24.35,-24.35,,,0.1152207,3.922186,1.68488,,,0.08651328,3.804752,1.670399,,44.4351775223034,38.0984867716315,15.4263643017896
0.284, 26.42,-26.42,,,0.1138647,3.942247,1.674938,,,0.08125596,3.815126,1.659671,,42.3659273746006,36.751996976503,15.9219201254933
0.295, 28.13,-28.13,,,0.1124079,3.960858,1.663465,,,0.07634336,3.825832,1.647604,,40.1401361256664,35.2769937606224,16.3683242017501
0.306, 29.34,-29.34,,,0.110699,3.977451,1.650183,,,0.07187292,3.836921,1.633915,,37.7195239813627,33.6205397443005,16.7738905780958
0.318, 30.04,-30.04,,,0.1084718,3.991224,1.63593,,,0.06778392,3.847583,1.619461,,35.2589484013373,31.931246179363,17.0877992334251
0.329, 30.82,-30.82,,,0.1060928,4.003591,1.622913,,,0.06352249,3.85639,1.606401,,33.1066841367723,30.6644305386856,17.3252951495413
0.341, 30.94,-30.94,,,0.1034224,4.012381,1.609176,,,0.06026545,3.864685,1.592983,,30.9580535327445,29.3389538199539,17.4221540594659
0.352, 30.29,-30.29,,,0.1002736,4.017078,1.594726,,,0.05792019,3.872476,1.579229,,28.8084291362202,27.9477143341761,17.4094533230577
0.363, 28.98,-28.98,,,0.09663732,4.018287,1.579513,,,0.05629742,3.879853,1.56497,,26.626047153348,26.4579340044373,17.2973374784991
0.374, 27.34,-27.34,,,0.09220065,4.017396,1.563967,,,0.0544714,3.886686,1.550401,,24.4433936704639,24.981629637556,17.1390017451133
0.385, 24.69,-24.69,,,0.08715652,4.011479,1.547127,,,0.05382326,3.893274,1.534849,,22.1474427203277,23.2035453234265,16.8144550704477
0.396, 21.78,-21.78,,,0.08280143,4.003337,1.531255,,,0.05423403,3.898796,1.520337,,20.0296043157687,21.4201932260462,16.3972261464188
0.407, 17.94,-17.94,,,0.07884145,3.99004,1.515135,,,0.0564076,3.903686,1.506035,,17.9535991111647,19.3359610588159,15.7563443917887
0.418, 14.16,-14.16,,,0.07520826,3.976029,1.500342,,,0.0583965,3.907621,1.493069,,16.0935986330515,17.4177502951211,15.0915262398785
0.429, 9.66,-9.66,,,0.07320162,3.95761,1.486486,,,0.0625381,3.910763,1.48148,,14.439412239471,15.2287344912021,14.2228414610685
0.441, 5.19,-5.19,,,0.07166007,3.938503,1.473728,,,0.06639311,3.913255,1.471044,,12.9787293685604,13.163646489909,13.2925330097342
0.452, 0.22,-0.22,,,0.07203978,3.915908,1.463479,,,0.07184146,3.914845,1.463368,,11.953039889442,11.001562121138,12.1939312632548
0.463, 4.58,4.58,,,0.07243165,3.893539,1.454514,,,0.07615034,3.916041,1.456796,,11.1176352064368,9.11533371734174,11.1067914276575
0.473, 9.5,9.5,,,0.07399205,3.869946,1.447431,,,0.08069135,3.916765,1.451988,,10.5774133618987,7.35634063518481,9.96077450927938
0.485, 14.2,14.2,,,0.07552959,3.847389,1.439833,,,0.08413213,3.91756,1.446438,,9.95044384844721,5.74913868471051,8.94052612945712
0.496, 18.84,18.84,,,0.07728446,3.825096,1.431349,,,0.08689246,3.918423,1.439985,,9.21997904270348,4.14609546555137,8.0501298874271
0.508, 22.98,22.98,,,0.07897814,3.805207,1.422992,,,0.08885548,3.919223,1.433472,,8.48612048681034,2.73802490002311,7.38299117881093
0.519, 26.75,26.75,,,0.08030068,3.786978,1.415931,,,0.09001926,3.919827,1.428087,,7.88378831878313,1.67081811719011,6.87882846321886
0.53, 30,30,,,0.08178033,3.77119,1.409928,,,0.09135034,3.92025,1.423619,,7.43173226114545,0.929359161787825,6.60051832596622
0.541, 32.59,32.59,,,0.08343235,3.758644,1.40422,,,0.09258551,3.920634,1.419066,,6.99232229840413,0.75821388921775,6.3593084945922
0.552, 34.29,34.29,,,0.08613451,3.750249,1.400173,,,0.0950937,3.920774,1.415637,,6.8173358449456,1.26269063342034,6.2007734050655
0.563, 35.18,35.18,,,0.09005511,3.745734,1.397056,,,0.09882562,3.920736,1.412615,,6.84527174476039,1.95033591723177,6.04646406808332
0.575, 35.52,35.52,,,0.09461278,3.743854,1.394025,,,0.1033085,3.920587,1.409396,,6.99745433164893,2.67576345860279,5.92516332689398
0.586, 34.86,34.86,,,0.100997,3.74669,1.391244,,,0.1100206,3.920149,1.405814,,7.45572073861664,3.49356695805012,5.85651779321148
0.597, 33.79,33.79,,,0.1060217,3.751604,1.388431,,,0.1155856,3.919723,1.402108,,7.87571759672971,4.0678936437123,5.87583100632589
0.608, 31.42,31.42,,,0.1115696,3.762764,1.386398,,,0.1220458,3.91907,1.398254,,8.48466224146312,4.43243790504444,5.96952711186597
0.619, 28.94,28.94,,,0.1157092,3.774572,1.384322,,,0.127343,3.918475,1.39402,,9.00263303785177,4.41437162830567,6.1714898235876
0.63, 25.44,25.44,,,0.1194361,3.791486,1.382831,,,0.1319189,3.917885,1.38984,,9.48808615828052,4.01458914136556,6.58767116738175
0.641, 22.51,22.51,,,0.1223808,3.810409,1.381065,,,0.1358392,3.92205,1.38582,,5.64517637824676,2.04899052652788,7.37307203686481
0.653, 18.77,18.77,,,0.12529,3.828958,1.377602,,,0.1385314,3.921826,1.380437,,5.93005758418493,2.73387534677439,8.35197642901783
0.664, 14.56,14.56,,,0.1291543,3.8497,1.372666,,,0.1410566,3.921515,1.37403,,6.30928717871076,3.65318036366203,9.50243211645927
0.675, 10.46,10.46,,,0.1345247,3.869613,1.367138,,,0.1441233,3.921021,1.367582,,6.89065152034315,4.44505795984532,10.6016460186259
0.686, 6.29,6.29,,,0.1410223,3.88961,1.361544,,,0.1473835,3.920387,1.361443,,7.58105470639863,5.0923912548537,11.6777764433612
0.697, 2.2,2.2,,,0.1483626,3.908935,1.356641,,,0.15078,3.919682,1.35646,,8.29064730839328,5.51917262505791,12.6954122758987
0.708, 1.8,-1.8,,,0.1572145,3.927562,1.351901,,,0.1550999,3.918798,1.352184,,9.10931717462403,5.65145673701382,13.6507337330512
0.719, 5.61,-5.61,,,0.1657737,3.945063,1.34673,,,0.1587961,3.917928,1.348043,,9.85037560347565,5.83851725704164,14.618993275679
0.73, 8.89,-8.89,,,0.1740208,3.95988,1.341739,,,0.1624342,3.917045,1.344544,,10.5520998277654,5.88426500905569,15.4954021444517
0.741, 11.8,-11.8,,,0.1830314,3.972402,1.335312,,,0.1671022,3.915798,1.339896,,11.4720349295864,5.73097337023153,16.2544751967379
0.753, 14.39,-14.39,,,0.1913109,3.983323,1.328645,,,0.1712935,3.914514,1.335136,,12.348937279513,5.59706153886434,16.9294515472086
0.764, 16.25,-16.25,,,0.199622,3.99027,1.321068,,,0.1766366,3.912741,1.329225,,13.4690566826,5.16539487599223,17.3810790104878
0.775, 17.89,-17.89,,,0.2082646,3.995695,1.312972,,,0.182651,3.910566,1.322749,,14.7316333372417,4.66875006403302,17.7637847443176
0.786, 18.81,-18.81,,,0.2169619,3.997072,1.304078,,,0.1900205,3.907635,1.31499,,16.2834027546152,4.11285080135192,17.911871779139
0.797, 19.39,-19.39,,,0.2254918,3.996425,1.295351,,,0.1978075,3.904278,1.307266,,17.9030762032801,3.87312738985466,18.0142785100626
0.808, 19.19,-19.19,,,0.2338053,3.991432,1.286949,,,0.20673,3.900188,1.299283,,19.7051430184654,4.22952537016778,17.9575537905841
0.819, 18.59,-18.59,,,0.2401625,3.984658,1.279613,,,0.2142275,3.896292,1.292032,,21.2862310220353,5.09708316779611,17.9187890530284
0.83, 17.87,-17.87,,,0.2448836,3.977403,1.271875,,,0.2201569,3.892444,1.284236,,22.7434894069461,6.24971427042767,17.9136817792187
0.842, 16.57,-16.57,,,0.2478065,3.967501,1.264792,,,0.2250794,3.888673,1.276532,,24.0905222020985,7.50569040119392,17.8651976827446
0.852, 14.94,-14.94,,,0.2505042,3.955346,1.257144,,,0.2302957,3.884228,1.267872,,25.5933516078834,9.06665837557616,17.7176758460612
0.864, 12.37,-12.37,,,0.2521348,3.938103,1.249657,,,0.2357845,3.879096,1.258514,,27.2328138215704,10.9834006486403,17.3733267459955
0.875, 9.81,-9.81,,,0.2549849,3.919981,1.242209,,,0.2424818,3.87304,1.249124,,29.0592609963197,13.2444868991284,16.8099693438351
0.886, 6.51,-6.51,,,0.2593473,3.897386,1.236942,,,0.2515356,3.866096,1.241359,,31.036197724864,15.9119326816574,15.8814478406927
0.897, 3.42,-3.42,,,0.2641177,3.876086,1.233355,,,0.2602856,3.859598,1.235597,,32.7900775567959,18.3764834316691,14.9460193089442
0.908, 0.1,0.1,,,0.2686572,3.85324,1.231999,,,0.2687625,3.853729,1.231934,,34.3069634915015,20.5664093582696,14.0588426472446
0.92, 3.7,3.7,,,0.2718693,3.831522,1.232902,,,0.2754993,3.849492,1.230515,,35.3681460476542,22.074769509581,13.4562065358078
0.93, 7.29,7.29,,,0.2736233,3.810537,1.233691,,,0.2804662,3.846004,1.22897,,36.2206697455641,23.257788976758,13.0514717349705
0.942, 11.01,11.01,,,0.2739215,3.789763,1.23479,,,0.2839805,3.843432,1.227813,,36.8383578859654,24.2015930277431,12.7082265641987
0.953, 14.72,14.72,,,0.2734046,3.768891,1.234385,,,0.286614,3.840773,1.225521,,37.4666362343802,25.2212531575394,12.3411739159636
0.964, 18.24,18.24,,,0.2726052,3.748858,1.232608,,,0.2888288,3.838072,1.222756,,38.0953380545117,26.4073240116432,11.8829058014487
0.975, 21.43,21.43,,,0.2713005,3.730581,1.229543,,,0.290321,3.835573,1.219635,,38.6686504571104,27.6325694146414,11.4314243334589
0.986, 24.1,24.1,,,0.2704745,3.715124,1.226632,,,0.2918884,3.833307,1.217158,,39.1826665740797,28.7108257356967,11.1081736871523
0.998, 25.74,25.74,,,0.2698812,3.705436,1.224458,,,0.2931626,3.831728,1.215697,,39.5379320236825,29.3778346707223,11.0571137556591
1.008, 26.82,26.82,,,0.2685972,3.699494,1.222963,,,0.293509,3.831014,1.214776,,39.6974476722147,29.6430270031521,11.2003428185686
1.02, 26.67,26.67,,,0.2666101,3.700721,1.221905,,,0.2924913,3.831299,1.214099,,39.6329160467322,29.3834456709693,11.6266268656377
1.031, 25.93,25.93,,,0.2654332,3.704748,1.221271,,,0.291674,3.831503,1.213519,,39.5864092899677,28.9866321818014,12.1126614059033
1.042, 24.1,24.1,,,0.264292,3.715123,1.221464,,,0.2898747,3.832605,1.213467,,39.3379816563891,28.1043783788091,12.7796259447005
1.053, 22.07,22.07,,,0.2634219,3.726688,1.221782,,,0.2878602,3.83397,1.213685,,39.0287585107001,27.1728703755352,13.4175988925987
1.064, 19.1,19.1,,,0.2628253,3.743662,1.222475,,,0.2849681,3.836201,1.214574,,38.5193152052529,25.8999929421381,14.1727573928258
1.075, 15.82,15.82,,,0.2622036,3.762546,1.223047,,,0.2813727,3.838957,1.215765,,37.8821849319201,24.5187340700072,14.93486561034
1.086, 12.51,12.51,,,0.2623681,3.781481,1.223768,,,0.2781438,3.841664,1.217402,,37.2478584511636,23.1206985461943,15.6918998512157
1.098, 8.87,8.87,,,0.2625498,3.802924,1.225458,,,0.2741212,3.845433,1.220418,,36.3498047135134,21.3965693099119,16.4384173086096
1.109, 5.23,5.23,,,0.2635773,3.823711,1.226457,,,0.2706122,3.848683,1.223177,,35.5598455466599,19.7988293056088,17.1622107272671
1.12, 1.53,1.53,,,0.2643729,3.845245,1.227759,,,0.2664938,3.852517,1.226711,,34.6080860330604,18.0400249074225,17.9089740714643
1.131, 1.97,-1.97,,,0.2651601,3.865625,1.228933,,,0.2623438,3.8563,1.23039,,33.6465422737471,16.2903934530362,18.6672121331477
1.142, 5.49,-5.49,,,0.2666621,3.88597,1.23051,,,0.2585829,3.860101,1.234856,,32.655843852773,14.5167129032515,19.4088528356099
1.153, 8.87,-8.87,,,0.2670995,3.905514,1.231006,,,0.2536947,3.863911,1.23843,,31.6343207889324,12.8662429862497,20.1001891962347
1.164, 11.95,-11.95,,,0.2684333,3.922885,1.231529,,,0.249949,3.86706,1.241989,,30.7679079017318,11.4444606029008,20.7075586286347
1.175, 14.73,-14.73,,,0.2686381,3.938828,1.231564,,,0.2453451,3.870237,1.244945,,29.8701307867353,10.1530742111416,21.2637836059527
1.186, 17.22,-17.22,,,0.2687613,3.952711,1.230836,,,0.2409761,3.872825,1.246904,,29.1196910933197,9.17555976244603,21.7653431657698
1.198, 19.34,-19.34,,,0.2684783,3.964496,1.229731,,,0.2366749,3.875034,1.248145,,28.4645615644776,8.47291943905935,22.2077413361899
1.208, 21.11,-21.11,,,0.267606,3.974015,1.227626,,,0.2322989,3.876635,1.247865,,27.979008552535,8.25183390574112,22.5574845780025
1.22, 22.23,-22.23,,,0.2658847,3.979612,1.224122,,,0.2282287,3.877167,1.24521,,27.8126644225701,8.71776036964983,22.7239858023138
1.231, 22.98,-22.98,,,0.2639381,3.982921,1.220165,,,0.2246649,3.877074,1.241591,,27.8365393481495,9.47050183675165,22.7933292959327
1.242, 22.89,-22.89,,,0.2609895,3.981361,1.215366,,,0.2218443,3.875809,1.235908,,28.2146398270596,10.7634036766907,22.60984651427
1.253, 22.49,-22.49,,,0.257854,3.978253,1.211027,,,0.2194686,3.874328,1.230364,,28.652670091627,12.0680679558269,22.3572627106971
1.264, 21.13,-21.13,,,0.2543818,3.969563,1.206395,,,0.2186547,3.871671,1.223641,,29.4282107295439,13.5936461597832,21.953192145738
1.275, 19.56,-19.56,,,0.2504466,3.960654,1.203484,,,0.2176733,3.869825,1.218855,,29.955733545221,14.683424155874,21.6243663576765
1.286, 17.1,-17.1,,,0.2459601,3.947371,1.2014,,,0.2177052,3.867752,1.214494,,30.5399469294316,15.5915712052893,21.257812313237
1.297, 13.88,-13.88,,,0.2408542,3.930786,1.200865,,,0.2183654,3.865958,1.211286,,31.0378984419201,16.2733760371927,20.8197274071578
1.308, 10.55,-10.55,,,0.2360354,3.913345,1.200104,,,0.2193305,3.863898,1.207847,,31.601412938427,17.0417142408302,20.3196312153297
1.32, 6.34,-6.34,,,0.2320873,3.890325,1.19888,,,0.222417,3.860448,1.203338,,32.5269172055876,18.238059406707,19.5134571798377
1.331, 2.04,-2.04,,,0.2293439,3.866095,1.197335,,,0.226377,3.856453,1.198677,,33.570973062873,19.7258948401337,18.5589519302683
1.342, 2.73,2.73,,,0.2282219,3.83898,1.196304,,,0.2319559,3.851993,1.19465,,34.7048663958117,21.4483882461555,17.3230343569889
1.353, 7.55,7.55,,,0.2288547,3.812024,1.197192,,,0.2384696,3.848268,1.192947,,35.6295988516176,22.9037871121164,16.0727050849619
1.365, 11.76,11.76,,,0.2310557,3.78825,1.198653,,,0.2449976,3.845026,1.192397,,36.418400301439,24.1484387895539,14.9634892248077
1.375, 15.46,15.46,,,0.234521,3.768392,1.203014,,,0.2515623,3.843372,1.194878,,36.8181644322462,24.7707287697805,14.0302190327769
1.386, 18.73,18.73,,,0.2387724,3.750933,1.208043,,,0.2579774,3.842077,1.198138,,37.130061596921,25.2817191130317,13.2249004784547
1.398, 21.11,21.11,,,0.2427489,3.738255,1.212767,,,0.2632061,3.841177,1.201294,,37.3462336630417,25.5650592575812,12.7173047391266
1.408, 22.79,22.79,,,0.2457169,3.729272,1.216315,,,0.2669714,3.840527,1.203696,,37.5020371038633,25.7858212106965,12.4004889846127
1.42, 23.25,23.25,,,0.2478492,3.72702,1.219181,,,0.2694815,3.840473,1.206052,,37.5171864630208,25.6484541574791,12.445684345093
1.431, 23.12,23.12,,,0.2498068,3.72702,1.220101,,,0.2716694,3.839771,1.206959,,37.682961979753,25.6278935811022,12.6206686641175
1.442, 22,22,,,0.2498563,3.733077,1.22031,,,0.27172,3.840159,1.207722,,37.5927317682335,25.1354250028175,13.134132389553
1.453, 20.56,20.56,,,0.2503512,3.740541,1.220094,,,0.2718343,3.840369,1.208225,,37.5439164075938,24.6530463212033,13.6938185651367
1.464, 18.32,18.32,,,0.2494914,3.753124,1.219582,,,0.2699177,3.841753,1.208845,,37.2179217328645,23.7664229048111,14.4792680997162
1.475, 15.87,15.87,,,0.2495948,3.76633,1.218761,,,0.2683334,3.842829,1.209257,,36.9628551555974,22.9599073598701,15.2468088787903
1.487, 12.74,12.74,,,0.2498343,3.783202,1.217482,,,0.2658002,3.844333,1.209553,,36.6033857246774,21.9492904002832,16.1471285316346
1.498, 9.53,9.53,,,0.2506691,3.80076,1.217031,,,0.2632454,3.846306,1.210773,,36.1279738358228,20.7700053389311,17.0306749478913
1.51, 6.21,6.21,,,0.2530333,3.81876,1.217265,,,0.2615629,3.848287,1.212932,,35.6463840410358,19.5375421337283,17.841293728862
1.52, 3.17,3.17,,,0.2555265,3.835263,1.217668,,,0.2600253,3.850274,1.215319,,35.1574893591348,18.3307143353145,18.5653876758347
1.531, 0.26,0.26,,,0.2579817,3.851706,1.219181,,,0.2583556,3.852915,1.218979,,34.4990693867515,16.9028325932065,19.2544683665489
1.542, 2.68,-2.68,,,0.2618582,3.868116,1.221621,,,0.2578709,3.855514,1.223907,,33.841909584235,15.32629178795,19.9132998578182
1.553, 5.26,-5.26,,,0.2654759,3.882675,1.224279,,,0.2575285,3.858067,1.229095,,33.1853884043882,13.735605661316,20.5595450183448
1.564, 7.66,-7.66,,,0.2683631,3.89656,1.226994,,,0.2565889,3.860872,1.23444,,32.4502756550436,12.1443244544671,21.1908542631194
1.576, 9.87,-9.87,,,0.2712889,3.909018,1.229118,,,0.2558711,3.86322,1.239196,,31.823622891606,10.7480869779032,21.7733276566874
1.586, 11.84,-11.84,,,0.2735653,3.919918,1.230333,,,0.2548003,3.865215,1.24287,,31.2819274337955,9.58921222877035,22.2800849903182
1.598, 13.28,-13.28,,,0.2752914,3.927926,1.231215,,,0.2539482,3.866708,1.245652,,30.8709003213604,8.70468226530048,22.6874272157987
1.609, 14.62,-14.62,,,0.2763445,3.935213,1.231122,,,0.252535,3.868011,1.247354,,30.5074386449816,7.95640688801791,23.069697525081
1.62, 15.3,-15.3,,,0.276112,3.9392,1.231006,,,0.2508871,3.869084,1.248228,,30.20435925428,7.38283237691715,23.3982842565282
1.631, 15.66,-15.66,,,0.2746556,3.941889,1.230701,,,0.2485061,3.870259,1.248559,,29.8684573904352,6.86135555914773,23.708453383391
1.642, 15.19,-15.19,,,0.271578,3.94031,1.23008,,,0.2459855,3.870931,1.247456,,29.6733018158057,6.71399209747135,23.8908689480257
1.653, 14.4,-14.4,,,0.2684252,3.93699,1.229775,,,0.2440722,3.871279,1.246239,,29.5708182452561,6.74308144545013,23.9624356681575
1.665, 12.61,-12.61,,,0.2645153,3.928078,1.22896,,,0.2433051,3.870418,1.243197,,29.815741991888,7.36543076294349,23.7569033289203
1.675, 10.21,-10.21,,,0.2613513,3.915504,1.228778,,,0.2444753,3.868666,1.240054,,30.3128499760374,8.30442038447134,23.2907531763225
1.687, 7.37,-7.37,,,0.2584718,3.900355,1.228846,,,0.2465923,3.866397,1.236758,,30.9468383624394,9.4695054829342,22.6600347428946
1.698, 3.66,-3.66,,,0.2560539,3.879882,1.228799,,,0.2503932,3.862914,1.23254,,31.8987618005744,11.2701567414534,21.6585634063518
