経過時間(s),めり込み量(mm),Y軸めり込み量(mm),,デバイス先端,X座標,Y座標,Z座標,,仮想物体との接触位置,X座標,Y座標,Z座標,,接触点の法線と床の法線とのなす角,接触点の法線とデバイスの方向ベクトルのなす角,床の法線とデバイスの方向ベクトルのなす角
0.001, 0.2,-0.2,,,-0.1231333,1.620646,1.098651,,,-0.1230501,1.619848,1.099264,,44.8234942563803,25.3467886158964,37.5234087651815
0.01, 0.74,0.74,,,-0.1225224,1.616258,1.10037,,,-0.1228515,1.619189,1.098133,,44.8234942563803,24.9811361564022,37.3929350801921
0.022, 1.67,1.67,,,-0.1213734,1.61269,1.102581,,,-0.1221382,1.619285,1.097556,,44.8234942563803,24.8059076581217,37.3711706830075
0.032, 2.4,2.4,,,-0.1216222,1.609514,1.104989,,,-0.1227345,1.619006,1.097757,,44.8234942563803,24.7505882500259,37.374756532222
0.043, 3.14,3.14,,,-0.1209702,1.606927,1.10745,,,-0.1224499,1.619368,1.097984,,44.8234942563803,24.6661415010251,37.350410323603
0.055, 3.87,3.87,,,-0.1206535,1.603976,1.109598,,,-0.1225178,1.619309,1.097969,,44.8234942563803,24.5340849197396,37.2802540374955
0.067, 4.7,4.7,,,-0.1196504,1.600311,1.111004,,,-0.1219723,1.618978,1.096956,,44.8234942563803,24.3775574788862,37.0855526704331
0.076, 5.38,5.38,,,-0.1186185,1.596785,1.111287,,,-0.1213515,1.618249,1.095304,,44.8234942563803,24.2057577354736,36.8203808285702
0.089, 6.01,6.01,,,-0.1178888,1.593629,1.111872,,,-0.1209993,1.617663,1.094123,,44.8234942563803,24.0825069753305,36.6136344232418
0.101, 6.52,6.52,,,-0.1165321,1.591555,1.112353,,,-0.1199716,1.6177,1.093148,,44.8234942563803,23.9683130457748,36.4855137383559
0.112, 7.49,7.49,,,-0.1144615,1.589008,1.115599,,,-0.1185383,1.619053,1.093628,,44.8234942563803,23.7652942160821,36.3935828097804
0.123, 8.06,8.06,,,-0.1134572,1.588069,1.118597,,,-0.1179374,1.620387,1.094914,,44.8234942563803,23.6377814180155,36.4692373980167
0.135, 8.04,8.04,,,-0.1132365,1.589527,1.120185,,,-0.1177116,1.621673,1.096507,,44.8234942563803,23.6280859647585,36.6097036494838
0.146, 9.46,9.46,,,-0.1099388,1.58631,1.125672,,,-0.1155673,1.624122,1.097825,,44.8234942563803,23.1888313888165,36.6746211806437
0.158, 10.53,10.53,,,-0.1075037,1.583998,1.13011,,,-0.1141482,1.626079,1.099174,,44.8234942563803,22.7717305308309,36.694940992859
0.17, 11.58,11.58,,,-0.1052567,1.57989,1.132017,,,-0.112962,1.626198,1.098157,,44.8234942563803,22.3665620129933,36.6209939518677
0.182, 12.51,12.51,,,-0.1031497,1.576002,1.133306,,,-0.1118075,1.62615,1.096934,,44.8234942563803,22.0538588860189,36.4624003788478
0.194, 13.12,13.12,,,-0.1018161,1.572741,1.133157,,,-0.111046,1.625383,1.095088,,44.8234942563803,21.9215171443435,36.4109383199784
0.206, 13.4,13.4,,,-0.1005968,1.572657,1.134349,,,-0.1100351,1.626286,1.095354,,44.8234942563803,21.9107117853772,36.5571555905666
0.217, 13.43,13.43,,,-0.09980246,1.574036,1.135779,,,-0.1091865,1.627651,1.096435,,44.8234942563803,21.9886083831463,36.7873978459861
0.229, 13.28,13.28,,,-0.1000649,1.575236,1.136245,,,-0.1091908,1.62823,1.097258,,44.8234942563803,22.1259464080605,36.8292634893386
0.24, 12.82,12.82,,,-0.1015093,1.576,1.134354,,,-0.1101864,1.62722,1.096826,,44.8234942563803,22.2372597054139,36.6992405968219
0.252, 13.3,13.3,,,-0.1000594,1.574303,1.135039,,,-0.1091033,1.627609,1.096292,,44.8234942563803,22.1970418451528,36.4942051538329
0.263, 13.62,13.62,,,-0.09943208,1.572878,1.135424,,,-0.1087882,1.627654,1.096041,,44.8234942563803,22.1087206714531,36.2205775380128
0.274, 13.78,13.78,,,-0.09840064,1.573467,1.136832,,,-0.1080267,1.628873,1.097004,,44.8234942563803,21.9743845145955,36.2407880672045
0.286, 13.95,13.95,,,-0.09676799,1.574125,1.137767,,,-0.1066709,1.630072,1.097343,,44.8234942563803,21.8423569616132,36.4027284328245
0.297, 13.91,13.91,,,-0.09599619,1.575755,1.139042,,,-0.1060029,1.631373,1.098515,,44.8234942563803,21.7401585514535,36.6473243303853
0.309, 13.98,13.98,,,-0.09430599,1.577044,1.139875,,,-0.1044473,1.632813,1.098996,,44.8234942563803,21.6758318316404,36.8178024322303
0.32, 13.7,13.7,,,-0.09339485,1.579723,1.140129,,,-0.1032811,1.634278,1.099903,,44.8234942563803,21.7281783999827,36.965870684032
0.331, 13.39,13.39,,,-0.09352236,1.581804,1.140136,,,-0.1029529,1.635152,1.10081,,44.8234942563803,21.9274986823427,36.920084512205
0.342, 12.98,12.98,,,-0.09394163,1.583666,1.139175,,,-0.1028122,1.63553,1.101203,,44.8234942563803,22.1606386454369,36.6941008796145
0.353, 12.58,12.58,,,-0.094353,1.584917,1.137469,,,-0.102696,1.635482,1.101019,,44.8234942563803,22.3820375136746,36.2382165010536
0.365, 12.43,12.43,,,-0.09407842,1.585229,1.136187,,,-0.1021831,1.635437,1.100444,,44.8234942563803,22.5094256607923,35.8845083345381
0.376, 12.34,12.34,,,-0.09283338,1.587383,1.13709,,,-0.1008698,1.63725,1.101694,,44.8234942563803,22.5138413779679,35.8054625574732
0.387, 12.46,12.46,,,-0.08982955,1.59099,1.140473,,,-0.09810928,1.641201,1.104521,,44.8234942563803,22.3662563620364,36.0626123423792
0.399, 12.44,12.44,,,-0.0870977,1.595847,1.144484,,,-0.09547806,1.645735,1.108301,,44.8234942563803,22.2658047727084,36.4228638299374
0.409, 12.47,12.47,,,-0.08363479,1.601317,1.1491,,,-0.09216467,1.651082,1.11255,,44.8234942563803,22.1559480131549,36.7793040720448
0.421, 12.57,12.57,,,-0.0805901,1.605175,1.152531,,,-0.08926418,1.655262,1.115561,,44.8234942563803,22.095142255761,36.9239094180337
0.432, 12.69,12.69,,,-0.0774076,1.608704,1.155466,,,-0.08616859,1.659313,1.118194,,44.8234942563803,22.0893126894666,36.8654839814993
0.444, 12.81,12.81,,,-0.0740679,1.612501,1.158552,,,-0.08284324,1.663685,1.121052,,44.8234942563803,22.1445433051057,36.7153052013027
0.455, 12.85,12.85,,,-0.07138729,1.616494,1.161838,,,-0.08010056,1.667943,1.124331,,44.8234942563803,22.2211285065906,36.5685141948402
0.466, 12.77,12.77,,,-0.06831902,1.621333,1.164722,,,-0.07685386,1.672501,1.127531,,44.8234942563803,22.3270220489884,36.4688719829063
0.476, 12.63,12.63,,,-0.06621836,1.626104,1.167939,,,-0.07439978,1.676842,1.131215,,44.8234942563803,22.5660650029085,36.3137071647544
0.488, 12.38,12.38,,,-0.06469178,1.630676,1.17033,,,-0.07245074,1.68052,1.134467,,44.8234942563803,22.8029444944693,36.1136338540594
0.499, 12.22,12.22,,,-0.06205238,1.635688,1.17311,,,-0.06944627,1.685037,1.137851,,44.8234942563803,23.0510750148272,35.885392844011
0.51, 11.95,11.95,,,-0.06036554,1.641075,1.176348,,,-0.06737204,1.689405,1.141955,,44.8234942563803,23.2645440336592,35.743386384929
0.521, 11.9,11.9,,,-0.05749354,1.645862,1.179724,,,-0.06432812,1.694092,1.145539,,44.8234942563803,23.4055413323194,35.6141660396174
0.532, 11.8,11.8,,,-0.05495758,1.651244,1.183756,,,-0.06162146,1.699131,1.149959,,44.8234942563803,23.5139637521871,35.4834874489586
0.543, 11.84,11.84,,,-0.05171817,1.6565,1.188279,,,-0.05831034,1.704657,1.154463,,44.8234942563803,23.6089067941028,35.3350879329913
0.554, 11.63,11.63,,,-0.04955306,1.661604,1.191303,,,-0.05588107,1.709016,1.158198,,44.8234942563803,23.7573626591292,35.1622431706648
0.565, 11.48,11.48,,,-0.04681778,1.666737,1.194344,,,-0.05293062,1.713611,1.161746,,44.8234942563803,23.893052900952,35.0347132971257
0.576, 11.32,11.32,,,-0.04387319,1.673006,1.198625,,,-0.04978199,1.71921,1.166515,,44.8234942563803,24.0093880947529,34.9995856352019
0.588, 11.22,11.22,,,-0.04006625,1.679874,1.203628,,,-0.04583994,1.725661,1.171696,,44.8234942563803,24.0977092684526,35.0792734500309
0.599, 11.17,11.17,,,-0.03680057,1.686125,1.208635,,,-0.04246996,1.731637,1.176778,,44.8234942563803,24.1746957435401,35.1653270009892
0.61, 11.01,11.01,,,-0.03375758,1.692509,1.213061,,,-0.03923672,1.737381,1.181668,,44.8234942563803,24.2883671636388,35.1348746034222
0.621, 10.83,10.83,,,-0.03095163,1.698413,1.216901,,,-0.03620734,1.742648,1.186087,,44.8234942563803,24.4350061983965,34.9996334465247
0.632, 10.86,10.86,,,-0.02755126,1.704161,1.221781,,,-0.03267853,1.748615,1.190997,,44.8234942563803,24.5893291957566,34.8231072123381
0.643, 10.86,10.86,,,-0.02458714,1.709548,1.226304,,,-0.0295912,1.754125,1.195701,,44.8234942563803,24.7241383432011,34.5769130505559
0.654, 10.93,10.93,,,-0.0209547,1.715011,1.230919,,,-0.02587112,1.76,1.20029,,44.8234942563803,24.8571562735855,34.3390346438569
0.665, 11.14,11.14,,,-0.01660633,1.720631,1.236342,,,-0.02150182,1.766616,1.205277,,44.8234942563803,24.9856406660345,34.119997313459
0.676, 11.09,11.09,,,-0.01305269,1.727196,1.241477,,,-0.01779471,1.773036,1.210649,,44.8234942563803,25.12603349297,33.9850805905381
0.688, 11.28,11.28,,,-0.00892628,1.732832,1.246927,,,-0.01362308,1.779483,1.215595,,44.8234942563803,25.2562066496443,33.9335399844955
0.698, 11.37,11.37,,,-0.005033957,1.738756,1.252187,,,-0.009698316,1.785769,1.22056,,44.8234942563803,25.3256969923263,33.9680768350726
0.71, 11.5,11.5,,,-0.0004874635,1.745515,1.258318,,,-0.00513351,1.793026,1.226259,,44.8234942563803,25.3937273821138,34.038957121212
0.721, 11.75,11.75,,,0.004273434,1.751903,1.26477,,,-0.0004225522,1.80036,1.231919,,44.8234942563803,25.4365133934314,34.1569622962185
0.732, 11.95,11.95,,,0.009470643,1.758559,1.270791,,,0.004770398,1.807851,1.23732,,44.8234942563803,25.5103750570605,34.1903755807084
0.743, 12.22,12.22,,,0.01365413,1.764084,1.276738,,,0.008990154,1.81455,1.242574,,44.8234942563803,25.6476174593291,34.0949066142412
0.754, 12.43,12.43,,,0.01769346,1.769124,1.281497,,,0.01311846,1.820547,1.246927,,44.8234942563803,25.8092607117285,33.8947342658059
0.765, 12.75,12.75,,,0.02115736,1.773003,1.286261,,,0.01661983,1.82594,1.251052,,44.8234942563803,25.9640379166558,33.598399686722
0.776, 13.07,13.07,,,0.02555781,1.777695,1.291332,,,0.02100793,1.832138,1.25543,,44.8234942563803,26.0689359590098,33.3643393556627
0.787, 13.6,13.6,,,0.03064747,1.781597,1.296468,,,0.02590731,1.838295,1.259237,,44.8234942563803,26.0695814118684,33.254598709322
0.799, 14.01,14.01,,,0.03654212,1.787442,1.302543,,,0.03163008,1.845734,1.264035,,44.8234942563803,26.0350326084606,33.414148508799
0.809, 14.26,14.26,,,0.04152119,1.79434,1.309622,,,0.03655124,1.85355,1.270168,,44.8234942563803,26.0478767788373,33.6368194997342
0.821, 14.51,14.51,,,0.04671872,1.800272,1.314965,,,0.04174992,1.860399,1.274655,,44.8234942563803,26.1084400645225,33.7899659970425
0.832, 14.79,14.79,,,0.05108882,1.804774,1.319343,,,0.04614331,1.866057,1.278262,,44.8234942563803,26.2001814553539,33.778218071997
0.844, 15.09,15.09,,,0.0544488,1.807463,1.322286,,,0.04958375,1.870171,1.28064,,44.8234942563803,26.3501672827118,33.5196988342006
0.854, 13.57,13.57,,,0.05773377,1.809862,1.32566,,,0.05344431,1.866456,1.288513,,45.1770384983602,73.4691394986414,33.2054486694223
0.865, 9.9,9.9,,,0.06174637,1.811916,1.328741,,,0.05866916,1.853359,1.30181,,45.1770384983602,73.2139363175947,32.9376096387627
0.876, 5.92,5.92,,,0.06486236,1.815147,1.332368,,,0.06307925,1.839967,1.31634,,45.1770384983602,73.0175957051772,32.7647238953023
0.887, 2.1,2.1,,,0.06739287,1.81908,1.335389,,,0.0667962,1.827882,1.329713,,45.1770384983602,72.880049359499,32.7085968173596
0.898, 0.79,-0.79,,,0.06874565,1.822499,1.337729,,,0.06895163,1.819178,1.339867,,45.1770384983602,72.7071294650937,32.653982626276
0.91, 3.24,-3.24,,,0.06959708,1.825655,1.339795,,,0.0703719,1.812043,1.348537,,45.1770384983602,72.515283117025,32.5649989242452
0.921, 3.8,-3.8,,,0.06991541,1.827013,1.339394,,,0.07075414,1.811015,1.349609,,45.1770384983602,72.2730094837174,32.3981647282211
0.932, 4.5,-4.5,,,0.07007983,1.828089,1.340028,,,0.0710175,1.809086,1.352073,,45.1770384983602,72.035414529861,32.1987129647232
0.943, 3.89,-3.89,,,0.07066537,1.82706,1.33904,,,0.07151582,1.810621,1.349404,,45.1770384983602,71.9837578106057,32.0693013741202
0.954, 5.62,-5.62,,,0.07323537,1.827708,1.340738,,,0.07456245,1.80399,1.355736,,45.1770384983602,72.1566913653889,32.1597194158367
0.966, 9.24,-9.24,,,0.07652064,1.830007,1.344523,,,0.07893141,1.79119,1.369469,,45.1770384983602,72.6620502178261,32.5993820955703
0.976, 13.46,-13.46,,,0.07895876,1.833502,1.348658,,,0.08263701,1.777264,1.385456,,45.1770384983602,73.1345968424036,33.0801317771127
0.987, 15.85,-15.85,,,0.08025654,1.835851,1.350537,,,0.08456572,1.769804,1.394078,,45.1770384983602,73.2917731512101,33.274324295096
0.999, 15.38,-15.38,,,0.07965642,1.835761,1.350621,,,0.08360153,1.771474,1.392681,,45.1770384983602,73.0276292527887,33.0609867574019
1.009, 13.26,-13.26,,,0.07784688,1.834689,1.348799,,,0.08095661,1.77902,1.384654,,45.1770384983602,72.5475967410892,32.6337242857614
1.021, 10.48,-10.48,,,0.07605655,1.832491,1.346351,,,0.07829669,1.788211,1.374316,,45.1770384983602,71.9895156599158,32.1086193569832
1.032, 8.35,-8.35,,,0.07459749,1.83069,1.344408,,,0.07624061,1.795239,1.366433,,45.1770384983602,71.5288467339744,31.6742637340871
1.042, 7.72,-7.72,,,0.07379384,1.830184,1.344161,,,0.07522913,1.797377,1.364421,,45.1770384983602,71.3319118951156,31.5116984061754
1.179, 8.06,-8.06,,,0.073034,1.83108,1.344848,,,0.07444687,1.796796,1.366024,,45.1770384983602,71.2697366848312,31.5099225570406
1.209, 9.22,-9.22,,,0.07583322,1.833819,1.351215,,,0.07393869,1.792806,1.372175,,45.1770384983602,65.0194375794721,26.9157171755347
1.242, 8.37,-8.37,,,0.07823911,1.832547,1.350415,,,0.0753493,1.794728,1.368047,,45.1770384983602,62.4122724835592,25.0420221685167
1.264, 9.65,-9.65,,,0.0836397,1.832287,1.353136,,,0.07953973,1.788417,1.372782,,45.1770384983602,61.1912874109372,24.3382087601727
1.275, 13.11,-13.11,,,0.09047353,1.832984,1.361367,,,0.08502134,1.773507,1.388386,,45.1770384983602,61.5066577267082,24.6199318574813
1.286, 14.43,-14.43,,,0.09390499,1.832829,1.365147,,,0.08758164,1.767295,1.394611,,45.1770384983602,61.1818890709008,24.4502750858612
1.297, 14.39,-14.39,,,0.09627977,1.830466,1.367167,,,0.08959872,1.764898,1.395983,,45.1770384983602,60.6143208572343,24.038739124347
1.308, 14.21,-14.21,,,0.09834798,1.828608,1.36816,,,0.09135244,1.763626,1.396029,,45.1770384983602,60.0127997741484,23.6119940395218
1.319, 13.77,-13.77,,,0.1005834,1.825714,1.368857,,,0.09347573,1.762587,1.395374,,45.1770384983602,59.5050640159462,23.2622439675202
1.33, 14,-14,,,0.104442,1.822533,1.371293,,,0.09704979,1.758247,1.397939,,45.1770384983602,59.2030740403869,23.0339209952041
1.341, 14.59,-14.59,,,0.1084608,1.819496,1.375069,,,0.10068,1.752398,1.40258,,45.1770384983602,58.9853276157062,22.838015807334
1.352, 15.11,-15.11,,,0.1126656,1.815207,1.379938,,,0.1046567,1.745597,1.408221,,45.1770384983602,58.8524804400463,22.6536160728007
1.363, 15.48,-15.48,,,0.1165117,1.810901,1.384532,,,0.108293,1.739473,1.413245,,45.1770384983602,58.666624167713,22.450959243124
1.374, 15.25,-15.25,,,0.1166829,1.808849,1.38593,,,0.1087252,1.738491,1.414202,,45.1770384983602,58.7145447735963,22.4178037982681
1.385, 14.71,-14.71,,,0.1194609,1.80341,1.388752,,,0.111723,1.735393,1.415586,,45.1770384983602,58.3819897023517,22.0828632835223
1.396, 14.14,-14.14,,,0.122303,1.79806,1.391129,,,0.1148242,1.732503,1.416571,,45.1770384983602,58.0966039162027,21.7848416477603
1.407, 13.83,-13.83,,,0.1252525,1.792858,1.39441,,,0.1179122,1.728614,1.418983,,45.1770384983602,57.8493647355066,21.5225333626273
1.418, 13.12,-13.12,,,0.1274595,1.787102,1.397067,,,0.120447,1.72605,1.420074,,45.1770384983602,57.58733136548,21.2636896908543
1.43, 12.5,-12.5,,,0.1298892,1.781349,1.400044,,,0.1230995,1.723074,1.421631,,45.1770384983602,57.2621972945621,20.9843691125194
1.441, 11.01,-11.01,,,0.1309909,1.774612,1.401223,,,0.1248292,1.723149,1.419795,,45.1770384983602,56.7537785174619,20.5808108117338
1.451, 9.67,-9.67,,,0.1320933,1.768434,1.402244,,,0.1265249,1.723113,1.41815,,45.1770384983602,56.2297117774087,20.1622056046254
1.463, 8.47,-8.47,,,0.1334177,1.761959,1.403925,,,0.1284207,1.722185,1.417566,,45.1770384983602,55.7976169470649,19.8301013258535
1.474, 7.91,-7.91,,,0.1351634,1.756635,1.406869,,,0.1304082,1.719455,1.41944,,45.1770384983602,55.5193311423605,19.641782770393
1.485, 7.75,-7.75,,,0.1367983,1.752386,1.410554,,,0.1320319,1.71595,1.422773,,45.1770384983602,55.314801133356,19.5658498519557
1.496, 7.02,-7.02,,,0.1380069,1.747262,1.412805,,,0.1335581,1.714186,1.423742,,45.1770384983602,54.9999635723254,19.4133436848642
1.507, 5.87,-5.87,,,0.1389139,1.741565,1.413732,,,0.1350823,1.713868,1.422667,,45.1770384983602,54.5303880799542,19.11148689799
1.518, 4.45,-4.45,,,0.1398349,1.734843,1.41434,,,0.1368856,1.713823,1.420928,,45.1770384983602,54.0630938707022,18.7246471922801
1.529, 3.4,-3.4,,,0.142145,1.727796,1.416039,,,0.1399085,1.711661,1.420961,,45.1770384983602,53.7333118561835,18.2983716829472
1.54, 3.25,-3.25,,,0.1458093,1.721871,1.419833,,,0.1437447,1.706452,1.424492,,45.1770384983602,53.7383935167846,18.0622435121742
1.551, 3.72,-3.72,,,0.1502496,1.717297,1.424564,,,0.147966,1.69962,1.429933,,45.1770384983602,53.9427254503087,18.0365722468931
経過時間(s),めり込み量(mm),Y軸めり込み量(mm),,デバイス先端,X座標,Y座標,Z座標,,仮想物体との接触位置,X座標,Y座標,Z座標,,接触点の法線と床の法線とのなす角,接触点の法線とデバイスの方向ベクトルのなす角,床の法線とデバイスの方向ベクトルのなす角
0, 0.65,-0.65,,,-0.1543859,1.623704,1.130812,,,-0.1541025,1.620475,1.131203,,44.8234874261913,36.6088157249164,8.31557322930197
0.011, 0.08,0.08,,,-0.1527415,1.622247,1.133008,,,-0.1527791,1.622652,1.132959,,44.8234874261913,36.4478315857536,8.45175439095774
0.022, 0.76,0.76,,,-0.1507972,1.620853,1.13458,,,-0.1511549,1.624623,1.134121,,44.8234874261913,36.3222892972077,8.56013241459702
0.033, 1.35,1.35,,,-0.1492566,1.619466,1.135838,,,-0.1499049,1.626148,1.135028,,44.8234874261913,36.244186086222,8.62591396466288
0.044, 1.83,1.83,,,-0.1478968,1.618103,1.136433,,,-0.1487916,1.627154,1.135337,,44.8234874261913,36.1741868944611,8.6871090428287
0.055, 2.27,2.27,,,-0.1469058,1.616861,1.137255,,,-0.1480266,1.628085,1.135889,,44.8234874261913,36.1103997595773,8.74913655027645
0.067, 2.72,2.72,,,-0.1459637,1.615673,1.138263,,,-0.1473159,1.629101,1.136616,,44.8234874261913,36.0373235676809,8.82262938370067
0.077, 2.94,2.94,,,-0.1454861,1.61527,1.139041,,,-0.1469446,1.629798,1.13723,,44.8234874261913,35.9718493761192,8.89761717473786
0.089, 3,3,,,-0.1451181,1.615362,1.139239,,,-0.1465949,1.630156,1.137386,,44.8234874261913,35.9727748667259,8.90200984002559
0.1, 3.05,3.05,,,-0.1452526,1.614663,1.138761,,,-0.1467487,1.6297,1.136896,,44.8234874261913,36.0305070390789,8.84064656845614
0.111, 3.67,3.67,,,-0.1434514,1.612458,1.138844,,,-0.1452786,1.630566,1.136649,,44.8234874261913,36.084964135816,8.76864783887129
0.122, 4.57,4.57,,,-0.1413259,1.608803,1.138767,,,-0.1436511,1.631361,1.136146,,44.8234874261913,36.1913170084228,8.64199735216341
0.133, 4.96,4.96,,,-0.1399771,1.607206,1.138298,,,-0.1425443,1.631704,1.135525,,44.8234874261913,36.2412627653386,8.5846707222811
0.144, 5.53,5.53,,,-0.1385145,1.605837,1.139535,,,-0.1414302,1.633149,1.136455,,44.8234874261913,36.1783191587939,8.64574627213977
0.155, 6.09,6.09,,,-0.1372895,1.6046,1.14116,,,-0.1405426,1.634693,1.137751,,44.8234874261913,36.1046794763066,8.71904444517806
0.166, 6.26,6.26,,,-0.1366214,1.604852,1.142314,,,-0.1399689,1.635788,1.138725,,44.8234874261913,35.9927121883584,8.8326210964047
0.177, 6.35,6.35,,,-0.1362415,1.605025,1.142892,,,-0.139617,1.636378,1.139208,,44.8234874261913,35.9561262810873,8.87148060283248
0.188, 6.22,6.22,,,-0.1365654,1.605057,1.142173,,,-0.1398479,1.635763,1.138569,,44.8234874261913,35.9911036788536,8.83740137491704
0.2, 6.32,6.32,,,-0.1360725,1.604969,1.142312,,,-0.1393987,1.636162,1.138684,,44.8234874261913,36.0446523604564,8.78274961779401
0.212, 6.68,6.68,,,-0.1349509,1.60357,1.14206,,,-0.1384599,1.636549,1.138293,,44.8234874261913,36.1356748738976,8.68968573162138
0.222, 7.2,7.2,,,-0.133645,1.601405,1.141862,,,-0.1374399,1.637008,1.137922,,44.8234874261913,36.2676136344232,8.5559105040338
0.233, 7.43,7.43,,,-0.1328376,1.600594,1.141721,,,-0.1367716,1.637341,1.137724,,44.8234874261913,36.3243110331458,8.4996015723095
0.244, 7.41,7.41,,,-0.1327897,1.601419,1.142725,,,-0.1367124,1.638043,1.138658,,44.8234874261913,36.231758557373,8.59171435466667
0.255, 7.44,7.44,,,-0.1328399,1.601544,1.143246,,,-0.1367727,1.638327,1.139119,,44.8234874261913,36.1946057444166,8.62912329970983
0.266, 7.47,7.47,,,-0.1324838,1.602252,1.14409,,,-0.1364043,1.639163,1.139933,,44.8234874261913,36.2061658392652,8.61812242658401
0.278, 7.55,7.55,,,-0.1321574,1.602219,1.144329,,,-0.1360952,1.639542,1.14016,,44.8234874261913,36.2700315213221,8.55414233886161
