経過時間(s),めり込み量(mm),Y軸めり込み量(mm),,デバイス先端,X座標,Y座標,Z座標,,仮想物体との接触位置,X座標,Y座標,Z座標,,接触点の法線と床の法線とのなす角,接触点の法線とデバイスの方向ベクトルのなす角,床の法線とデバイスの方向ベクトルのなす角
0.001, 0.43,-0.43,,,-0.1623415,1.668409,1.364995,,,-0.161377,1.666601,1.364345,,45.0005395849294,24.2186138586811,32.879105655055
0.01, 0.99,0.99,,,-0.1606463,1.660953,1.36462,,,-0.1628904,1.665087,1.366105,,45.0005395849294,23.8958276652251,33.2004523861834
0.021, 2.14,2.14,,,-0.15942,1.654691,1.363484,,,-0.1643455,1.663632,1.366701,,45.0005395849294,23.6333776536707,33.4798276060301
0.034, 3.27,3.27,,,-0.1583798,1.648367,1.361874,,,-0.1659865,1.661991,1.366776,,45.0005395849294,23.3828258313194,33.7288870320894
0.044, 4.24,4.24,,,-0.1577945,1.64264,1.36064,,,-0.1677314,1.660246,1.366988,,45.0005395849294,23.2045510687538,33.9474735700146
0.055, 5.45,5.45,,,-0.1560504,1.636436,1.358775,,,-0.1689704,1.659008,1.366937,,45.0005395849294,22.9742866152202,34.2342800354715
0.066, 6.69,6.69,,,-0.1547254,1.629584,1.357229,,,-0.1707722,1.657206,1.367214,,45.0005395849294,22.6911633291707,34.514372425161
0.077, 7.96,7.96,,,-0.1527293,1.623198,1.35628,,,-0.1720328,1.655945,1.368048,,45.0005395849294,22.3439165214303,34.7511375110564
0.088, 9.13,9.13,,,-0.1506724,1.617444,1.355375,,,-0.1730798,1.654898,1.368749,,45.0005395849294,21.9861085339796,34.9940736726951
0.099, 10.25,10.25,,,-0.1488821,1.611726,1.354192,,,-0.1743117,1.653666,1.369094,,45.0005395849294,21.6724286899811,35.2255419470364
0.111, 11.32,11.32,,,-0.1468956,1.606553,1.352936,,,-0.1752209,1.652757,1.369274,,45.0005395849294,21.4046186876247,35.4129725779296
0.123, 12.06,12.06,,,-0.1453544,1.603086,1.352376,,,-0.1757389,1.652239,1.36967,,45.0005395849294,21.1865836874597,35.5475716970629
0.133, 12.76,12.76,,,-0.1442472,1.599505,1.35185,,,-0.1765367,1.651441,1.370041,,45.0005395849294,21.0233011897051,35.6348205310927
0.144, 13.25,13.25,,,-0.1434111,1.59705,1.352038,,,-0.1770466,1.650931,1.370813,,45.0005395849294,20.8829749571121,35.6841652313783
0.155, 13.56,13.56,,,-0.1432667,1.595053,1.351537,,,-0.1777292,1.650249,1.370661,,45.0005395849294,20.8114150671692,35.6511002865264
0.166, 13.74,13.74,,,-0.1434346,1.593704,1.351229,,,-0.1783247,1.649653,1.370549,,45.0005395849294,20.7946640286959,35.6043237372973
0.177, 13.65,13.65,,,-0.1442988,1.593475,1.350649,,,-0.178839,1.649139,1.369841,,45.0005395849294,20.870678909401,35.4914821851596
0.188, 13.13,13.13,,,-0.1455375,1.595768,1.350676,,,-0.1785902,1.649388,1.36923,,45.0005395849294,21.0400112470445,35.3798154255265
0.199, 13,13,,,-0.1467159,1.595538,1.349841,,,-0.1792739,1.648704,1.368241,,45.0005395849294,21.1669947054652,35.2463227970079
0.211, 12.99,12.99,,,-0.1477736,1.594631,1.34883,,,-0.180087,1.647891,1.367295,,45.0005395849294,21.3652716764585,35.0699570722623
0.221, 12.59,12.59,,,-0.1489769,1.596215,1.347552,,,-0.1800445,1.647933,1.365571,,45.0005395849294,21.6130658100092,34.9033414422855
0.233, 12.5,12.5,,,-0.1485506,1.59735,1.346582,,,-0.1792695,1.648708,1.364521,,45.0005395849294,21.7256051262845,34.8350702883364
0.244, 12.42,12.42,,,-0.1472203,1.599146,1.346184,,,-0.1777735,1.650205,1.363988,,45.0005395849294,21.6969029646435,34.8322562504767
0.255, 12.4,12.4,,,-0.1460521,1.600396,1.345938,,,-0.1766307,1.651347,1.363654,,45.0005395849294,21.6076323946756,34.8713078559695
0.266, 12.42,12.42,,,-0.1447182,1.601564,1.346218,,,-0.1753668,1.652611,1.36392,,45.0005395849294,21.5678123929226,34.8612128366572
0.277, 12.44,12.44,,,-0.1423628,1.603782,1.346327,,,-0.1730414,1.654937,1.363952,,45.0005395849294,21.5142466358473,34.7951307582762
0.288, 12.46,12.46,,,-0.1388265,1.607154,1.346645,,,-0.1695371,1.658441,1.364174,,45.0005395849294,21.4493786235576,34.7095621507354
0.3, 12.44,12.44,,,-0.1350424,1.611058,1.348168,,,-0.1656382,1.66234,1.365559,,45.0005395849294,21.4303650849846,34.5848497301506
0.31, 12.34,12.34,,,-0.1323905,1.614399,1.348474,,,-0.1626117,1.665366,1.365715,,45.0005395849294,21.5204672304608,34.4443561579276
0.322, 12.24,12.24,,,-0.1290567,1.618478,1.348386,,,-0.1588985,1.66908,1.365525,,45.0005395849294,21.6388446507667,34.3438943233161
0.333, 12.13,12.13,,,-0.1257503,1.622596,1.348753,,,-0.1551895,1.672788,1.365791,,45.0005395849294,21.7693678546263,34.2502763380625
0.344, 12.12,12.12,,,-0.1217505,1.626698,1.348644,,,-0.1510572,1.676921,1.365708,,45.0005395849294,21.8779985952578,34.1556338244619
0.355, 12.08,12.08,,,-0.1167203,1.632058,1.348865,,,-0.1457953,1.682183,1.365947,,45.0005395849294,22.0267020546347,34.0581226314897
0.367, 11.91,11.91,,,-0.1126315,1.637386,1.348952,,,-0.1411095,1.686868,1.365883,,45.0005395849294,22.2228172708159,33.9326418146446
0.377, 11.8,11.8,,,-0.1082189,1.642616,1.349797,,,-0.1362243,1.691753,1.366667,,45.0005395849294,22.4473648561733,33.7679386375822
0.389, 11.58,11.58,,,-0.1040178,1.648395,1.351346,,,-0.1312566,1.696721,1.367982,,45.0005395849294,22.6899697536465,33.573537798835
0.4, 11.33,11.33,,,-0.09951744,1.654703,1.35299,,,-0.1258813,1.702097,1.369342,,45.0005395849294,22.9665872846925,33.340594203674
0.411, 11.09,11.09,,,-0.09493835,1.660946,1.354359,,,-0.1204912,1.707487,1.370416,,45.0005395849294,23.2148458710938,33.0950318343725
0.422, 10.97,10.97,,,-0.08965854,1.66718,1.35648,,,-0.1146667,1.713311,1.372373,,45.0005395849294,23.4404128621565,32.8480795216136
0.433, 10.72,10.72,,,-0.08441263,1.67414,1.356977,,,-0.1086185,1.719359,1.372577,,45.0005395849294,23.6945539488168,32.6262862099623
0.444, 10.59,10.59,,,-0.07837065,1.681171,1.357382,,,-0.1020529,1.725925,1.372861,,45.0005395849294,23.9402529218979,32.4373461073045
0.456, 10.66,10.66,,,-0.07154553,1.687648,1.356511,,,-0.09518552,1.732792,1.372173,,45.0005395849294,24.1707000829868,32.2736674585891
0.466, 10.57,10.57,,,-0.06518336,1.694704,1.356483,,,-0.08843484,1.739543,1.372048,,45.0005395849294,24.3608627894719,32.1046851681308
0.477, 10.71,10.71,,,-0.05729169,1.701781,1.355979,,,-0.08069751,1.74728,1.371762,,45.0005395849294,24.5026336070342,31.957641444676
0.488, 10.74,10.74,,,-0.05015149,1.708828,1.355511,,,-0.07345054,1.754527,1.37134,,45.0005395849294,24.6538078872746,31.7895129278402
0.5, 10.72,10.72,,,-0.04328518,1.715889,1.354854,,,-0.06635675,1.761621,1.370689,,45.0005395849294,24.8461955278199,31.6041757498694
0.511, 10.56,10.56,,,-0.03626898,1.724058,1.35498,,,-0.05874755,1.76923,1.370609,,45.0005395849294,25.0926338688581,31.3625441543258
0.522, 10.47,10.47,,,-0.02956814,1.731534,1.355273,,,-0.05155155,1.776426,1.370782,,45.0005395849294,25.3727108906225,31.078609783335
0.533, 10.32,10.32,,,-0.02326055,1.738984,1.355513,,,-0.0445976,1.783381,1.370841,,45.0005395849294,25.7094784809204,30.7615797316419
0.544, 10.29,10.29,,,-0.01669415,1.745878,1.355148,,,-0.03767836,1.7903,1.370467,,45.0005395849294,26.0116426262987,30.4707195490254
0.555, 10.25,10.25,,,-0.009506978,1.75348,1.354787,,,-0.0301709,1.797807,1.370047,,45.0005395849294,26.2332293247334,30.2422087465123
0.567, 10.44,10.44,,,-0.001481688,1.760392,1.353645,,,-0.02232599,1.805652,1.369131,,45.0005395849294,26.3891266806534,29.9943514337136
0.578, 10.63,10.63,,,0.007192763,1.767877,1.353585,,,-0.01390755,1.81407,1.369221,,45.0005395849294,26.4279477672681,29.7689551973754
0.589, 10.78,10.78,,,0.01489211,1.774684,1.353641,,,-0.006328672,1.821649,1.369372,,45.0005395849294,26.5198616203713,29.5055489593638
0.6, 10.86,10.86,,,0.02275569,1.782158,1.353318,,,0.001615152,1.829593,1.369113,,45.0005395849294,26.7076201003355,29.2381026645706
0.611, 10.64,10.64,,,0.02869588,1.78962,1.3534,,,0.008288205,1.836266,1.368861,,45.0005395849294,26.992918801575,28.9131017823378
0.622, 10.55,10.55,,,0.03473282,1.796413,1.353576,,,0.01486742,1.842845,1.368873,,45.0005395849294,27.3286396654118,28.5217387839759
0.633, 10.3,10.3,,,0.03969761,1.803225,1.353616,,,0.02073187,1.84871,1.368515,,45.0005395849294,27.7230813714564,28.0899256989275
0.644, 10.01,10.01,,,0.04465958,1.810246,1.352969,,,0.02662891,1.854607,1.367493,,45.0005395849294,28.157196230191,27.7179792202884
0.656, 10,10,,,0.04962444,1.81555,1.351388,,,0.03201836,1.859996,1.365973,,45.0005395849294,28.6125751747675,27.3804193280688
0.667, 9.98,9.98,,,0.05393046,1.820245,1.351138,,,0.03676748,1.864745,1.365765,,45.0005395849294,29.0715280157276,27.0356638317588
0.678, 10.11,10.11,,,0.05852709,1.824301,1.351189,,,0.04152903,1.869507,1.36605,,45.0005395849294,29.4882993170949,26.7052790530626
0.688, 9.22,9.22,,,0.06367866,1.82713,1.351481,,,0.04846779,1.868478,1.365063,,45.0005293396459,66.3671636388059,26.4194219838739
0.7, 6.6,6.6,,,0.06933116,1.828672,1.352808,,,0.0586264,1.858319,1.362508,,45.0005293396459,66.0372860016415,26.1462075944871
0.711, 4.61,4.61,,,0.07458355,1.828972,1.353702,,,0.06721845,1.849727,1.360455,,45.0005293396459,65.7300367805677,25.8776701770043
0.724, 3.1,3.1,,,0.07907695,1.82874,1.353696,,,0.07419702,1.842749,1.358236,,45.0005293396459,65.412159785441,25.6152184579027
0.734, 2.26,2.26,,,0.08270629,1.827496,1.352879,,,0.07920974,1.837736,1.356202,,45.0005293396459,65.086551016389,25.3971356464148
0.745, 1.65,1.65,,,0.0856851,1.826277,1.35258,,,0.08319926,1.833746,1.35501,,45.0005293396459,64.6770197153405,25.1327082951507
0.756, 1.68,1.68,,,0.08728436,1.824477,1.35223,,,0.08482209,1.832124,1.354728,,45.0005293396459,64.1667977683496,24.8189772247348
0.767, 2.46,2.46,,,0.08767504,1.821532,1.352343,,,0.08420348,1.832742,1.356024,,45.0005293396459,63.5823384973357,24.4764842285245
0.778, 3.08,3.08,,,0.08906618,1.818024,1.351835,,,0.08487356,1.832072,1.356476,,45.0005293396459,63.0514415683025,24.184341677927
0.789, 4.22,4.22,,,0.09056021,1.812665,1.351516,,,0.08497971,1.831966,1.357925,,45.0005293396459,62.6103206432217,23.9527043564084
0.8, 5.07,5.07,,,0.0935761,1.806707,1.351169,,,0.08701985,1.829926,1.358916,,45.0005293396459,62.2921704405358,23.8013354157821
0.812, 6.06,6.06,,,0.09802467,1.798846,1.350453,,,0.09030116,1.826645,1.359746,,45.0005293396459,62.0754212234462,23.6870322032027
0.822, 6.81,6.81,,,0.1035508,1.790706,1.350799,,,0.09497398,1.821972,1.361186,,45.0005293396459,61.8840598187951,23.5016437988145
0.833, 7.33,7.33,,,0.1086362,1.783679,1.352266,,,0.099546,1.8174,1.363337,,45.0005293396459,61.6161866371906,23.20943123878
0.844, 7.95,7.95,,,0.1127149,1.777123,1.35453,,,0.1030922,1.813854,1.366365,,45.0005293396459,61.1871688069823,22.7467047184084
0.856, 8.88,8.88,,,0.1148615,1.771134,1.358752,,,0.1045935,1.812352,1.371712,,45.0005293396459,60.4760573417132,22.0540142728182
0.867, 9.67,9.67,,,0.1149768,1.767291,1.362531,,,0.1045511,1.812395,1.376403,,45.0005293396459,59.5092509217909,21.2438479918675
0.878, 10.17,10.17,,,0.1143364,1.764894,1.365793,,,0.104321,1.812625,1.380129,,45.0005293396459,58.3568614370945,20.3279879515466
0.889, 10.85,10.85,,,0.1115909,1.763465,1.369918,,,0.1021916,1.814754,1.384925,,45.0005293396459,56.9137244678998,19.2595824705477
0.9, 10.99,10.99,,,0.1106227,1.762396,1.373252,,,0.1023542,1.814592,1.388257,,45.0005293396459,55.5692051822921,18.3913510455312
0.911, 10.7,10.7,,,0.1109634,1.761793,1.374204,,,0.1041254,1.81282,1.388796,,45.0005293396459,54.2729753327725,17.7530698853553
0.922, 10.31,10.31,,,0.1124061,1.760818,1.374726,,,0.1068611,1.810084,1.388887,,45.0005293396459,53.1586436610724,17.3885546523263
0.933, 9.94,9.94,,,0.1149853,1.758806,1.374721,,,0.110593,1.806353,1.388554,,45.0005293396459,52.1333844838597,17.2131297861126
0.944, 9.36,9.36,,,0.1181305,1.757293,1.376003,,,0.1148333,1.802112,1.389122,,45.0005293396459,51.1600176674222,17.0368887123159
0.955, 8.9,8.9,,,0.1217832,1.754889,1.37867,,,0.1193974,1.797548,1.391077,,45.0005293396459,50.2026471535757,16.7442099918835
0.967, 8.46,8.46,,,0.1255306,1.752331,1.383182,,,0.123968,1.792978,1.3948,,45.0005293396459,49.2093737513561,16.3352695021817
0.978, 7.69,7.69,,,0.1304939,1.750183,1.388783,,,0.1297208,1.787225,1.39902,,45.0005293396459,48.1490825348653,15.7408808439382
0.989, 7.19,7.19,,,0.1354074,1.746926,1.393525,,,0.135297,1.781649,1.402763,,45.0005293396459,47.0654662230079,15.1484404971012
1.001, 6.68,6.68,,,0.1400276,1.744087,1.397377,,,0.1405193,1.776426,1.405718,,45.0005293396459,45.970317137058,14.7373809412683
1.011, 6.12,6.12,,,0.1446552,1.741672,1.398462,,,0.1456461,1.7713,1.405969,,45.0005293396459,44.9277058647418,14.5846920666217
1.022, 5.82,5.82,,,0.149102,1.738244,1.398259,,,0.1505305,1.766415,1.405369,,45.0005293396459,43.9864443516045,14.6813085048375
1.033, 5.43,5.43,,,0.1545939,1.734352,1.396959,,,0.156359,1.760587,1.40366,,45.0005293396459,43.1422022578328,15.0378255865709
1.044, 5.16,5.16,,,0.1607954,1.729215,1.394834,,,0.1628401,1.754106,1.401321,,45.0005293396459,42.4277235093966,15.522963664533
1.055, 4.97,4.97,,,0.1675985,1.723174,1.392144,,,0.1698453,1.7471,1.398536,,45.0005293396459,41.9058765807619,16.0461629705858
1.066, 4.84,4.84,,,0.1743271,1.716881,1.391994,,,0.1767922,1.740153,1.398245,,45.0005293396459,41.2957323840889,16.3382799079746
1.078, 4.82,4.82,,,0.1808636,1.710221,1.393874,,,0.1835664,1.733379,1.40003,,45.0005293396459,40.6826682816269,16.416039901964
1.089, 4.92,4.92,,,0.188457,1.701905,1.395333,,,0.1914028,1.725543,1.401528,,45.0005293396459,40.2069934304966,16.4088852790075
1.1, 5.03,5.03,,,0.1962493,1.693416,1.395271,,,0.1993961,1.71755,1.401562,,45.0005293396459,39.8812890387989,16.4736559611043
経過時間(s),めり込み量(mm),Y軸めり込み量(mm),,デバイス先端,X座標,Y座標,Z座標,,仮想物体との接触位置,X座標,Y座標,Z座標,,接触点の法線と床の法線とのなす角,接触点の法線とデバイスの方向ベクトルのなす角,床の法線とデバイスの方向ベクトルのなす角
0.001, 0.33,0.33,,,-0.170609,1.655172,1.348875,,,-0.1714938,1.656484,1.349325,,45.0005395849294,19.2424711396056,37.2146227515872
0.01, 1.74,1.74,,,-0.1658463,1.650495,1.351687,,,-0.1705804,1.657398,1.354006,,45.0005395849294,18.6680863973371,37.4789920462449
0.022, 3.13,3.13,,,-0.161708,1.645267,1.354425,,,-0.1703251,1.657652,1.358521,,45.0005395849294,18.2125179150165,37.7163820944319
0.033, 4.43,4.43,,,-0.1581665,1.639996,1.356773,,,-0.1704817,1.657496,1.362492,,45.0005395849294,17.8591751636115,37.9130129898811
0.044, 5.54,5.54,,,-0.1559952,1.634662,1.358561,,,-0.1714794,1.656498,1.365641,,45.0005395849294,17.6268684835728,38.0496611657084
0.055, 6.52,6.52,,,-0.1538836,1.63017,1.357591,,,-0.1721644,1.655813,1.365956,,45.0005395849294,17.600153906925,38.1996555308024
0.066, 7.47,7.47,,,-0.1516032,1.626038,1.354964,,,-0.1726398,1.655338,1.364672,,45.0005395849294,17.6587671736564,38.4402933338494
0.078, 8.3,8.3,,,-0.1498165,1.622309,1.351144,,,-0.1732789,1.654699,1.362162,,45.0005395849294,17.8237845394119,38.7755224240796
0.09, 8.92,8.92,,,-0.1484147,1.619561,1.347158,,,-0.1737134,1.654265,1.35921,,45.0005395849294,17.9746258479395,39.0283316238888
0.1, 9.76,9.76,,,-0.1466512,1.615654,1.345335,,,-0.1743964,1.653582,1.358564,,45.0005395849294,17.9703211213349,39.1310542510527
0.11, 10.68,10.68,,,-0.1441272,1.61194,1.345048,,,-0.1745588,1.653419,1.359395,,45.0005395849294,17.8103239444797,39.1532899312769
0.121, 11.78,11.78,,,-0.1408345,1.607761,1.345768,,,-0.1745613,1.653417,1.361424,,45.0005395849294,17.5791357078865,39.2666232570212
0.133, 12.85,12.85,,,-0.1361435,1.605085,1.347103,,,-0.1732385,1.654739,1.364009,,45.0005395849294,17.2926963650873,39.4898577385472
0.144, 13.9,13.9,,,-0.1316546,1.602305,1.347997,,,-0.1720849,1.655893,1.366049,,45.0005395849294,16.9866133987817,39.6679617463883
0.155, 14.74,14.74,,,-0.1275936,1.60052,1.349813,,,-0.1707146,1.657263,1.368641,,45.0005395849294,16.6725476491059,39.7664155054397
0.166, 15.31,15.31,,,-0.1241454,1.600001,1.350139,,,-0.1690978,1.65888,1.369517,,45.0005395849294,16.4919506222871,39.839184338832
0.177, 15.83,15.83,,,-0.1211162,1.599454,1.350052,,,-0.1676902,1.660288,1.370007,,45.0005395849294,16.4033835617842,39.8900350957877
0.189, 16.11,16.11,,,-0.1187144,1.599986,1.349665,,,-0.1660884,1.661889,1.369937,,45.0005395849294,16.3892040894618,39.8730176799442
0.199, 15.99,15.99,,,-0.1179444,1.60166,1.348264,,,-0.1647906,1.663187,1.368533,,45.0005395849294,16.5505075399595,39.7791640531707
0.211, 15.2,15.2,,,-0.1211659,1.603863,1.347372,,,-0.1654958,1.662482,1.366814,,45.0005395849294,16.751427794088,39.649810519174
0.222, 15.62,15.62,,,-0.1163152,1.606021,1.346211,,,-0.1616413,1.666337,1.366329,,45.0005395849294,16.9309063774613,39.5287044383706
0.233, 15.6,15.6,,,-0.1126836,1.609912,1.344683,,,-0.1576584,1.670319,1.364996,,45.0005395849294,17.1944133607603,39.350275996553
0.244, 15.34,15.34,,,-0.1106037,1.613847,1.343367,,,-0.1545838,1.673394,1.363504,,45.0005395849294,17.4052647096657,39.1921366311004
0.255, 15.1,15.1,,,-0.1083647,1.617858,1.342006,,,-0.1514156,1.676562,1.361979,,45.0005395849294,17.607054105342,39.0586986440937
0.266, 14.79,14.79,,,-0.1061003,1.622288,1.341951,,,-0.1480501,1.679928,1.361558,,45.0005395849294,17.7399832432697,38.883504296758
0.278, 14.48,14.48,,,-0.1039539,1.626549,1.341747,,,-0.1448062,1.683172,1.360911,,45.0005395849294,17.8319841812823,38.6586954566721
0.289, 14.06,14.06,,,-0.101521,1.631892,1.342294,,,-0.1409082,1.687069,1.360823,,45.0005395849294,17.9271782326431,38.3756387649652
0.3, 13.71,13.71,,,-0.09912926,1.636666,1.342083,,,-0.137284,1.690694,1.360131,,45.0005395849294,18.0586849837157,38.1052213379657
0.31, 13.14,13.14,,,-0.09648825,1.643245,1.34283,,,-0.132746,1.695232,1.360162,,45.0005395849294,18.2652435588472,37.8136610609788
0.322, 12.67,12.67,,,-0.0937856,1.649241,1.342988,,,-0.12844,1.699538,1.359735,,45.0005395849294,18.475107945445,37.5337599165806
0.333, 12.19,12.19,,,-0.09041542,1.655889,1.342498,,,-0.1234987,1.704479,1.358658,,45.0005395849294,18.6831776998883,37.2634005461874
0.344, 11.62,11.62,,,-0.08701655,1.663184,1.341953,,,-0.1183018,1.709676,1.357379,,45.0005395849294,18.8760144253591,36.9910160247617
0.356, 11.05,11.05,,,-0.08365101,1.670498,1.340133,,,-0.1131361,1.714842,1.354797,,45.0005395849294,19.0630915939726,36.7102781822135
0.366, 10.47,10.47,,,-0.08029903,1.677778,1.338464,,,-0.1080113,1.719967,1.352352,,45.0005395849294,19.2416429791918,36.4185778863525
0.377, 10,10,,,-0.07556289,1.685717,1.337436,,,-0.1018249,1.726153,1.350699,,45.0005395849294,19.4160962510231,36.1527981576704
0.388, 9.42,9.42,,,-0.07160955,1.693625,1.336394,,,-0.0961307,1.731847,1.348892,,45.0005395849294,19.6179846844396,35.8706840320427
0.4, 8.94,8.94,,,-0.06703489,1.701483,1.334974,,,-0.0900967,1.737881,1.346823,,45.0005395849294,19.8081525135665,35.5784031701184
0.411, 8.46,8.46,,,-0.06251024,1.709252,1.334484,,,-0.08413968,1.743838,1.345662,,45.0005395849294,19.9811594928812,35.2592045334241
0.422, 7.86,7.86,,,-0.05817708,1.717638,1.333242,,,-0.07807335,1.749905,1.343594,,45.0005395849294,20.1756866901246,34.9188630467424
0.433, 7.31,7.31,,,-0.05345471,1.726086,1.332247,,,-0.07175687,1.756221,1.341874,,45.0005395849294,20.4252857011132,34.5766603335637
0.444, 6.86,6.86,,,-0.04853736,1.734057,1.331008,,,-0.0655379,1.76244,1.340064,,45.0005395849294,20.6835641747481,34.281254660181
0.456, 6.64,6.64,,,-0.04263397,1.741512,1.329799,,,-0.0589326,1.769045,1.338582,,45.0005395849294,20.9122713451943,34.0380623664556
0.466, 6.31,6.31,,,-0.03670011,1.749639,1.329041,,,-0.05207117,1.775907,1.337435,,45.0005395849294,21.1567699125622,33.8144214886852
0.478, 6.08,6.08,,,-0.03082727,1.757097,1.32849,,,-0.04550076,1.782477,1.336601,,45.0005395849294,21.3930859135321,33.5697709496126
0.495, 6.06,6.06,,,-0.02436063,1.763775,1.328578,,,-0.03883822,1.78914,1.336637,,45.0005395849294,21.5830249313281,33.2771485782392
0.501, 6.02,6.02,,,-0.0179826,1.770439,1.328702,,,-0.03223366,1.795744,1.336689,,45.0005395849294,21.7772396474256,32.9684342816292
0.511, 6.12,6.12,,,-0.01143904,1.776415,1.330519,,,-0.02577603,1.802202,1.33857,,45.0005395849294,21.9215359273632,32.6465001542484
0.522, 6.24,6.24,,,-0.004724516,1.782331,1.332136,,,-0.01923209,1.808746,1.340265,,45.0005395849294,22.020472922285,32.3160761019656
0.533, 6.55,6.55,,,0.003255913,1.788353,1.333444,,,-0.01183093,1.816147,1.341904,,45.0005395849294,22.1472343995638,32.0186008813221
0.544, 6.87,6.87,,,0.0104367,1.793453,1.333344,,,-0.005294144,1.822684,1.342212,,45.0005395849294,22.2852366603563,31.8300535145307
