経過時間(s),めり込み量(mm),Y軸めり込み量(mm),,デバイス先端,X座標,Y座標,Z座標,,仮想物体との接触位置,X座標,Y座標,Z座標,,接触点の法線と床の法線とのなす角,接触点の法線とデバイスの方向ベクトルのなす角,床の法線とデバイスの方向ベクトルのなす角
0.001, 1.43,-1.43,,,0.4139947,3.612277,1.448915,,,0.4122235,3.605362,1.448787,,67.7662253985131,53.3706766326713,14.4238325784077
0.009, 2.02,-2.02,,,0.4151087,3.614268,1.448895,,,0.4125708,3.604515,1.448728,,67.8971532910696,53.2857022515718,14.6340862857774
0.02, 2.72,-2.72,,,0.4163832,3.61685,1.448476,,,0.4129137,3.6037,1.448277,,68.0228492588676,53.2199343618839,14.8198913316933
0.031, 3.99,-3.99,,,0.419105,3.620316,1.44832,,,0.4139862,3.60103,1.448075,,68.4345388996338,53.5508023764504,14.8947297123466
0.042, 5.17,-5.17,,,0.4214275,3.624019,1.448936,,,0.414737,3.599074,1.448689,,68.735866346862,53.7058784021456,15.0346529637898
0.053, 6.55,-6.55,,,0.4244851,3.627429,1.449182,,,0.4159881,3.595798,1.448984,,69.2387595010775,54.1913887254071,15.0480623323046
0.065, 7.79,-7.79,,,0.4262893,3.63328,1.448767,,,0.4160403,3.595683,1.448669,,69.2561969735433,54.002906245411,15.2534187941757
0.076, 9.16,-9.16,,,0.4282749,3.639896,1.44869,,,0.4160075,3.595768,1.448698,,69.2431649729695,53.7074595908944,15.5376314953674
0.087, 10,-10,,,0.4286351,3.646682,1.447813,,,0.4149491,3.598581,1.447935,,68.811148689799,52.9326805190488,15.8826721520673
0.098, 11.06,-11.06,,,0.4288828,3.655789,1.447304,,,0.4133247,3.602721,1.447624,,68.1735437183321,51.8440337730078,16.3397620589832
0.109, 11.84,-11.84,,,0.4281929,3.665007,1.44644,,,0.411039,3.608342,1.446933,,67.3030088120822,50.4751853542534,16.8435909490889
0.12, 12.55,-12.55,,,0.4268297,3.675318,1.445244,,,0.4080065,3.615447,1.445977,,66.1947081972513,48.7615592410749,17.4574780893229
0.131, 13.43,-13.43,,,0.4260558,3.685257,1.444286,,,0.4053448,3.62138,1.445236,,65.2620049109059,47.3215436682441,17.9720474515996
0.142, 14.33,-14.33,,,0.4250085,3.69571,1.442895,,,0.4023609,3.627749,1.444114,,64.2526259230716,45.8492691128609,18.4432792647985
0.153, 15.26,-15.26,,,0.4236806,3.706671,1.442291,,,0.3990372,3.634486,1.443839,,63.1761676492652,44.3609914246977,18.8698911609386
0.165, 16.08,-16.08,,,0.4217419,3.717702,1.441203,,,0.3952325,3.641837,1.443139,,61.989340351732,42.7700218452211,19.2918397455527
0.176, 17.12,-17.12,,,0.4198758,3.729894,1.441771,,,0.3911545,3.649275,1.444344,,60.7765515058859,41.2365966079005,19.6607006863202
0.187, 18.11,-18.11,,,0.4175246,3.742109,1.441924,,,0.3866947,3.657009,1.44527,,59.4998594119435,39.6916556719597,19.9964659463853
0.198, 19.14,-19.14,,,0.4150812,3.754147,1.443002,,,0.3821847,3.664397,1.447291,,58.2651593198498,38.3057010449051,20.2553727974063
0.209, 20.22,-20.22,,,0.4124129,3.766547,1.443326,,,0.3774292,3.671834,1.448631,,57.0048835851207,36.9739029862725,20.4491486738619
0.22, 21.17,-21.17,,,0.4088819,3.778953,1.443114,,,0.3719826,3.67996,1.449347,,55.6063989763823,35.4744374485601,20.6678564476415
0.232, 21.86,-21.86,,,0.4037443,3.791521,1.442603,,,0.3652648,3.689449,1.449694,,53.9428415635213,33.6732448975642,20.9295244025577
0.242, 22.72,-22.72,,,0.398995,3.804249,1.442075,,,0.3585484,3.698379,1.450119,,52.3445022101353,31.9116059709512,21.2347706707132
0.254, 23.65,-23.65,,,0.3936002,3.817725,1.441175,,,0.3510282,3.707807,1.450329,,50.6186807945331,30.0348100581363,21.5601933171154
0.264, 24.78,-24.78,,,0.3889259,3.831183,1.440941,,,0.3438309,3.71627,1.45136,,49.0328372718859,28.3485473895587,21.8829829256659
0.276, 25.83,-25.83,,,0.3832968,3.844668,1.440543,,,0.3358391,3.725136,1.452404,,47.3297364799255,26.6232587286969,22.1969957413772
0.287, 26.9,-26.9,,,0.3777995,3.857523,1.440834,,,0.3279707,3.733316,1.454267,,45.7165073145632,25.0881976611156,22.4989327829719
0.298, 28.08,-28.08,,,0.3725066,3.870356,1.44132,,,0.3201435,3.74097,1.456552,,44.1665427746277,23.7356511959092,22.7857563239012
0.309, 29.15,-29.15,,,0.366036,3.883099,1.442171,,,0.3113497,3.749061,1.459155,,42.4796807569671,22.355331474763,23.0599781661626
0.32, 30.16,-30.16,,,0.3601146,3.894506,1.443181,,,0.3031941,3.756104,1.461802,,40.9662030865624,21.20486127317,23.3224998947013
0.331, 30.99,-30.99,,,0.3536316,3.905013,1.442919,,,0.294841,3.763041,1.46287,,39.4276996037352,19.9944476255417,23.5403829231615
0.342, 31.85,-31.85,,,0.3478038,3.91476,1.44357,,,0.287087,3.769067,1.464778,,38.0503680902678,19.0397613759643,23.7370343091776
0.354, 32.24,-32.24,,,0.3410238,3.922177,1.443485,,,0.2794063,3.774843,1.465335,,36.687636105745,18.0442818227042,23.8459519177463
0.365, 32.5,-32.5,,,0.3350763,3.928023,1.443557,,,0.272889,3.779525,1.46577,,35.5504267160565,17.2508273066402,23.891198504644
0.376, 32.31,-32.31,,,0.3297419,3.930581,1.443901,,,0.2681354,3.782847,1.465712,,34.7234718305931,16.6423701666452,23.7809934054525
0.387, 31.81,-31.81,,,0.3240582,3.931575,1.443864,,,0.2636918,3.785925,1.464872,,33.9407731546252,15.978750712901,23.612922945223
0.398, 31.29,-31.29,,,0.3177315,3.932677,1.444622,,,0.2586154,3.789256,1.464895,,33.076621059977,15.3543297137126,23.4651774198506
0.409, 30.37,-30.37,,,0.3114806,3.93125,1.446503,,,0.2543848,3.791881,1.465754,,32.3821684256301,14.9314197799996,23.3016165918951
0.42, 29.27,-29.27,,,0.3045161,3.929231,1.447628,,,0.2497576,3.794744,1.465755,,31.6083455802416,14.378188133002,23.1368348676594
0.432, 27.75,-27.75,,,0.2967405,3.925244,1.449285,,,0.245048,3.797561,1.465849,,30.829816734646,13.7650454833668,22.956553737081
0.45, 26.07,-26.07,,,0.288404,3.920608,1.45089,,,0.2400494,3.800465,1.465841,,30.0082576984768,13.11730365768,22.7719251912168
0.456, 23.6,-23.6,,,0.2793052,3.911765,1.453081,,,0.2358876,3.80281,1.465838,,29.3298218572878,12.5248419665025,22.4856412352169
0.465, 21.2,-21.2,,,0.2711327,3.902797,1.454815,,,0.2325179,3.804677,1.465623,,28.778840757559,12.032406685389,22.1622949662646
0.475, 18.69,-18.69,,,0.2632222,3.892994,1.456332,,,0.2296052,3.806272,1.465235,,28.299983038364,11.5689894621568,21.7883745630102
0.486, 15.8,-15.8,,,0.2546959,3.881371,1.457763,,,0.2266279,3.807878,1.464738,,27.8102414130295,11.0707101005973,21.4222132544371
0.498, 12.66,-12.66,,,0.246262,3.868373,1.458206,,,0.224069,3.809305,1.463302,,27.3670799689909,10.4846397587577,21.026813614388
0.509, 9.29,-9.29,,,0.2379659,3.853999,1.458305,,,0.2219155,3.810512,1.46164,,26.9861313012762,9.9032361435387,20.6056675769791
0.52, 6.12,-6.12,,,0.2302513,3.840372,1.457982,,,0.2198353,3.811662,1.459925,,26.6185561435842,9.35582467132561,20.2124092011752
0.531, 2.82,-2.82,,,0.2233442,3.825597,1.458122,,,0.2186164,3.812325,1.458917,,26.4044980209527,9.06045827152961,19.8204536839193
0.542, 0.46,0.46,,,0.2181185,3.81007,1.458595,,,0.2188691,3.812225,1.458481,,26.4359664091306,9.10728946227061,19.3757844756635
0.553, 3.69,3.69,,,0.2143979,3.794087,1.458596,,,0.2203036,3.811552,1.457791,,26.6506341261285,9.43348477380122,18.8113581489277
0.564, 6.8,6.8,,,0.2118261,3.778239,1.458704,,,0.2224249,3.810507,1.457431,,26.9819990369434,9.93226444670347,18.2771161348416
0.576, 9.53,9.53,,,0.2100627,3.764055,1.459348,,,0.2245879,3.809385,1.457796,,27.3345682694464,10.5013105425105,17.8370453513165
0.587, 12.13,12.13,,,0.2075738,3.750956,1.458848,,,0.2257801,3.808805,1.457151,,27.5139102490401,10.7924772298575,17.5193681392175
0.598, 14.47,14.47,,,0.2066346,3.738594,1.458135,,,0.2280403,3.807662,1.456486,,27.8656103399954,11.2142772578613,17.2499530424508
0.61, 16.48,16.48,,,0.2062956,3.727731,1.455843,,,0.2304679,3.806474,1.454462,,28.2246716671239,11.525878163089,17.078974629263
0.62, 18.4,18.4,,,0.2054337,3.717615,1.454211,,,0.2321903,3.80561,1.453083,,28.4835802256922,11.8197829024433,16.9184242071004
0.631, 19.77,19.77,,,0.2060525,3.709683,1.452553,,,0.2346603,3.804322,1.451631,,28.8660520255495,12.2178693680823,16.8212425707465
0.642, 21.07,21.07,,,0.2060454,3.702524,1.451496,,,0.2363845,3.803405,1.450671,,29.1358444902573,12.5299902214461,16.7391249161879
0.654, 21.79,21.79,,,0.2050373,3.699059,1.450179,,,0.236543,3.803361,1.449364,,29.1470903964128,12.4491540810948,16.8082088626255
0.665, 22.45,22.45,,,0.2040936,3.695878,1.448779,,,0.2368173,3.80325,1.447974,,29.1779560204132,12.3172153205692,16.9500462745303
0.676, 22.65,22.65,,,0.202602,3.695532,1.447712,,,0.2360459,3.803709,1.446831,,29.0413693162867,11.9440829503684,17.1803602469341
0.687, 22.55,22.55,,,0.2022797,3.696216,1.446509,,,0.2358809,3.803832,1.445459,,29.0033798051802,11.7413492810657,17.3419847163138
0.698, 22.39,22.39,,,0.2017873,3.697321,1.44675,,,0.235339,3.80413,1.445488,,28.9150449711026,11.5720032830442,17.442981013213
0.709, 22.3,22.3,,,0.2004705,3.698509,1.446208,,,0.2341296,3.804809,1.444778,,28.7124035093511,11.2442301978592,17.5759460096328
0.72, 22.12,22.12,,,0.1991065,3.700216,1.445196,,,0.2327195,3.805595,1.443712,,28.4756879423259,10.8780970638156,17.6980732036888
0.732, 21.77,21.77,,,0.1968547,3.703325,1.444864,,,0.2302286,3.80694,1.44331,,28.0684857357195,10.315264732433,17.861645984475
0.743, 21.58,21.58,,,0.1943378,3.705697,1.444801,,,0.2276159,3.808322,1.443102,,27.6443258774232,9.79438342176531,17.9769720178541
0.754, 21.15,21.15,,,0.1923395,3.709104,1.445176,,,0.2250099,3.809673,1.443232,,27.2247610287631,9.38024601202341,18.0132625194518
0.765, 20.84,20.84,,,0.1897387,3.712177,1.446251,,,0.2218004,3.811292,1.444035,,26.7143512515752,9.00479308511668,17.9497981109974
0.776, 20.59,20.59,,,0.1868745,3.714998,1.447124,,,0.2183269,3.813007,1.444683,,26.1637560575239,8.65314934322041,17.8246212375619
0.787, 20.4,20.4,,,0.1836978,3.717652,1.447998,,,0.2145344,3.814831,1.445322,,25.5656756821367,8.3214275550314,17.6473368523985
0.798, 20.08,20.08,,,0.1802736,3.72104,1.448784,,,0.2103783,3.816775,1.445915,,24.9134711817251,7.91174940491979,17.5085525349677
0.809, 19.78,19.78,,,0.1760638,3.724581,1.450355,,,0.2055274,3.818954,1.447253,,24.1637776864556,7.44984933741475,17.4039635586651
0.821, 19.52,19.52,,,0.1710819,3.728182,1.4518,,,0.200002,3.821345,1.448499,,23.3150549887131,6.90924244097294,17.3242159796825
0.834, 19.08,19.08,,,0.1608022,3.734778,1.45404,,,0.1888244,3.825889,1.450487,,21.6150141214157,5.89710917943248,17.194968313615
0.844, 19.04,19.04,,,0.1536615,3.737697,1.454545,,,0.1815179,3.828673,1.450954,,20.5062063650531,5.22768449194208,17.1267842445754
0.855, 19.05,19.05,,,0.1460379,3.740445,1.454087,,,0.1737326,3.831491,1.45052,,19.3198742562209,4.53751395919873,17.0203869757403
0.867, 19.03,19.03,,,0.138451,3.7431,1.453365,,,0.1659439,3.834137,1.449886,,18.1384854966629,3.96669500246456,16.9008586685913
0.878, 19.16,19.16,,,0.1303233,3.745013,1.452902,,,0.1577867,3.836707,1.44957,,16.915500886217,3.62585064311921,16.7605853699629
0.889, 19.4,19.4,,,0.1215118,3.74635,1.451177,,,0.1491394,3.839257,1.447996,,15.6074445644787,3.44469183325687,16.6373960815206
0.9, 19.37,19.37,,,0.1116942,3.749106,1.449965,,,0.1391902,3.841907,1.446989,,14.1256205511279,3.89430396390017,16.5700265125169
0.911, 19.38,19.38,,,0.1015463,3.751487,1.448312,,,0.1290345,3.844338,1.445472,,12.6153377016186,4.78978357407852,16.5501848135301
0.923, 19.33,19.33,,,0.09158596,3.753805,1.446808,,,0.1189348,3.846474,1.444061,,11.1238506784085,5.91158405742823,16.4976043112153
0.934, 19.38,19.38,,,0.08031404,3.755598,1.44482,,,0.1076747,3.848535,1.442108,,9.4653945629419,7.30097597708699,16.4576306302102
0.946, 19.23,19.23,,,0.07093972,3.757792,1.444105,,,0.09790383,3.85004,1.441351,,8.04520275985169,8.53865403157596,16.3502822575596
0.957, 19.2,19.2,,,0.0615013,3.759098,1.443487,,,0.08813243,3.851299,1.440679,,6.63096133202346,9.72099645627029,16.1710444383479
0.968, 19.15,19.15,,,0.05134247,3.76036,1.442446,,,0.07759395,3.852382,1.439653,,5.10633850075075,10.9969440596139,15.9827702791157
0.98, 19.08,19.08,,,0.04034471,3.761437,1.44149,,,0.06607202,3.853243,1.438655,,3.44514646771085,12.3496074918066,15.719314522234
0.991, 19.04,19.04,,,0.02907349,3.762018,1.439766,,,0.05439734,3.85377,1.436921,,1.75791658034067,13.7560723225944,15.4961551727867
1.003, 18.81,18.81,,,0.01689509,3.763275,1.438251,,,0.04162376,3.853951,1.435531,,0.149353434567643,15.3781329223077,15.3168558818742
1.014, 18.59,18.59,,,0.005776994,3.764039,1.436841,,,0.0299979,3.853756,1.434217,,1.76790754599279,16.8761607052398,15.167404516804
1.025, 18.29,18.29,,,-0.006600861,3.764816,1.434775,,,0.01699843,3.853125,1.432256,,3.65291227874457,18.5750609309775,15.0183458876001
1.045, 17.88,17.88,,,-0.01896849,3.765646,1.432942,,,0.003889486,3.852053,1.430488,,5.55333210769387,20.3051204788418,14.8743347680525
1.06, 16.89,16.89,,,-0.04196191,3.767079,1.430071,,,-0.02088438,3.848826,1.427745,,9.1519076717821,23.5175752146102,14.5169314692989
1.071, 16.57,16.57,,,-0.05346471,3.76633,1.428619,,,-0.03316583,3.846627,1.426273,,10.9513235198696,25.0320244793973,14.2508230377721
1.082, 16.14,16.14,,,-0.06337643,3.766037,1.427921,,,-0.04405114,3.844359,1.425548,,12.544417288119,26.2973665068023,13.932078608645
1.093, 15.96,15.96,,,-0.07279981,3.764425,1.428434,,,-0.0542146,3.841988,1.425901,,14.0239916079745,27.4061623103342,13.5632885310882
1.104, 15.6,15.6,,,-0.08170467,3.763503,1.429018,,,-0.06402172,3.839434,1.426352,,15.4623867184699,28.4929734430869,13.2173300677441
1.115, 15.4,15.4,,,-0.08975524,3.76184,1.430114,,,-0.07282589,3.836929,1.427313,,16.7576705868157,29.4036664454444,12.8339191169021
1.126, 14.99,14.99,,,-0.09814113,3.760848,1.430083,,,-0.0821396,3.834008,1.427266,,18.1526974123829,30.4342531700615,12.4802929126544
1.139, 14.44,14.44,,,-0.106403,3.760407,1.430681,,,-0.0912336,3.830929,1.427871,,19.5195292178409,31.6146532597646,12.2966914564581
1.15, 13.72,13.72,,,-0.1150143,3.760467,1.431406,,,-0.1006238,3.827496,1.42866,,20.9433350446751,33.028437491818,12.2846430030975
