経過時間(s),めり込み量(mm),Y軸めり込み量(mm),,デバイス先端,X座標,Y座標,Z座標,,仮想物体との接触位置,X座標,Y座標,Z座標,,接触点の法線と床の法線とのなす角,接触点の法線とデバイスの方向ベクトルのなす角,床の法線とデバイスの方向ベクトルのなす角
0.001, 0.15,-0.15,,,-0.1846702,1.644146,1.342015,,,-0.1845782,1.6434,1.342077,,45.0005395849294,38.228584796227,8.3452264947584
0.01, 0.79,0.79,,,-0.1832359,1.640341,1.342688,,,-0.183731,1.644247,1.34236,,45.0005395849294,38.0313084479192,8.51356930877349
0.021, 1.49,1.49,,,-0.1817406,1.6379,1.343649,,,-0.182693,1.645285,1.343022,,45.0005395849294,37.9117801407702,8.64531511646041
0.032, 2.24,2.24,,,-0.1799418,1.635502,1.344636,,,-0.1813868,1.646591,1.343686,,45.0005395849294,37.8427235150885,8.7307291909755
0.043, 3.03,3.03,,,-0.1780358,1.633007,1.345313,,,-0.1800093,1.647969,1.344031,,45.0005395849294,37.7535963790891,8.80667235469627
0.055, 3.55,3.55,,,-0.1770323,1.631075,1.345707,,,-0.1793626,1.648615,1.344213,,45.0005395849294,37.6968545841383,8.83479992668931
0.066, 4.06,4.06,,,-0.1754821,1.629777,1.346161,,,-0.1781621,1.649816,1.344461,,45.0005395849294,37.6453617894184,8.86786999418296
0.077, 4.38,4.38,,,-0.1741731,1.629264,1.347153,,,-0.1770722,1.650906,1.345297,,45.0005395849294,37.6390028834781,8.90567252886609
0.088, 4.81,4.81,,,-0.1721342,1.628889,1.349295,,,-0.1753276,1.65265,1.347205,,45.0005395849294,37.6284195056537,8.99027210334531
0.099, 5.17,5.17,,,-0.1700827,1.628956,1.350222,,,-0.1735207,1.654457,1.347963,,45.0005395849294,37.6088441840372,9.02880632202292
0.11, 5.27,5.27,,,-0.1689994,1.62947,1.35044,,,-0.1724925,1.655485,1.348167,,45.0005395849294,37.6315921284349,8.96694530043155
0.122, 5.57,5.57,,,-0.1674608,1.629359,1.350547,,,-0.1711276,1.65685,1.348185,,45.0005395849294,37.6722761490939,8.88254550897999
0.132, 6.22,6.22,,,-0.1633921,1.629825,1.350944,,,-0.1674187,1.660559,1.348377,,45.0005395849294,37.7894446259504,8.69926507166576
0.144, 6.48,6.48,,,-0.1600969,1.631754,1.351533,,,-0.1642006,1.663777,1.348876,,45.0005395849294,37.9466789913632,8.54642422531427
0.155, 6.47,6.47,,,-0.1574117,1.634592,1.353193,,,-0.1614178,1.66656,1.350471,,45.0005395849294,38.1180211121141,8.47732149585692
0.166, 6.5,6.5,,,-0.1544739,1.637414,1.354875,,,-0.1584343,1.669543,1.352062,,45.0005395849294,38.2476239480086,8.45551782508569
0.177, 6.43,6.43,,,-0.1510175,1.641346,1.356117,,,-0.1548581,1.67312,1.353297,,45.0005395849294,38.3888073693186,8.38260299640391
0.188, 6.58,6.58,,,-0.1470125,1.644583,1.357022,,,-0.1508582,1.67712,1.354128,,45.0005395849294,38.5400994703188,8.26576578371296
0.199, 6.68,6.68,,,-0.1425991,1.648528,1.358181,,,-0.1463984,1.68158,1.355217,,45.0005395849294,38.7265943653218,8.14398692929502
0.21, 6.72,6.72,,,-0.1385916,1.652462,1.359119,,,-0.1422713,1.685707,1.35613,,45.0005395849294,38.9669657909985,7.96067404858313
0.221, 6.65,6.65,,,-0.1345892,1.65694,1.359799,,,-0.1380901,1.689888,1.356857,,45.0005395849294,39.2120568772604,7.74372163337139
0.232, 6.68,6.68,,,-0.130013,1.661481,1.361273,,,-0.1333863,1.694592,1.358315,,45.0005395849294,39.4580085673337,7.55439733258353
0.244, 6.87,6.87,,,-0.1251845,1.665412,1.362234,,,-0.1285282,1.69945,1.359179,,45.0005395849294,39.6653457840089,7.4123533074621
0.254, 7.1,7.1,,,-0.1200995,1.669349,1.363318,,,-0.1234458,1.704532,1.360141,,45.0005395849294,39.8445187164254,7.30140542521911
0.266, 7.37,7.37,,,-0.1142293,1.673804,1.36416,,,-0.1176048,1.710373,1.360865,,45.0005395849294,40.0013740063498,7.17761166505209
0.277, 7.67,7.67,,,-0.1082826,1.67831,1.365519,,,-0.1116357,1.716342,1.362108,,45.0005395849294,40.2321319410373,6.99279913097229
0.288, 8.02,8.02,,,-0.1020129,1.682836,1.366179,,,-0.105329,1.722649,1.362633,,45.0005395849294,40.5031162737221,6.77282819911822
0.299, 8.23,8.23,,,-0.09599715,1.687908,1.366463,,,-0.09917992,1.728798,1.362882,,45.0005395849294,40.8023263623666,6.49808811626803
0.31, 8.62,8.62,,,-0.08950214,1.692441,1.36814,,,-0.09271038,1.735267,1.36438,,45.0005395849294,40.9689249168709,6.39589397497646
0.321, 9.35,9.35,,,-0.08160965,1.696483,1.370629,,,-0.08504623,1.742932,1.366444,,45.0005395849294,41.0345425424012,6.45919488578217
0.332, 10.1,10.1,,,-0.07362759,1.700501,1.372456,,,-0.07731277,1.750665,1.367816,,45.0005395849294,41.0782659971564,6.54223803094759
0.344, 10.75,10.75,,,-0.06559831,1.705104,1.374209,,,-0.06949838,1.75848,1.369155,,45.0005395849294,41.1139298289151,6.62454052749549
0.355, 11.42,11.42,,,-0.05813084,1.709091,1.375651,,,-0.06216645,1.765811,1.370205,,45.0005395849294,41.2303674755508,6.6154461308687
0.366, 11.9,11.9,,,-0.05061541,1.714342,1.376628,,,-0.05452785,1.77345,1.370948,,45.0005395849294,41.5107467331775,6.45071990191849
0.377, 12.24,12.24,,,-0.04466813,1.718918,1.376854,,,-0.04825038,1.779728,1.371115,,45.0005395849294,41.9120135055603,6.13718178434134
0.388, 12.59,12.59,,,-0.0387123,1.723428,1.37681,,,-0.04195583,1.786022,1.371042,,45.0005395849294,42.300398541527,5.81830587407636
0.399, 12.91,12.91,,,-0.03285716,1.727946,1.376419,,,-0.03580658,1.792171,1.370606,,45.0005395849294,42.6251569520509,5.5732002736629
0.41, 13.46,13.46,,,-0.02621978,1.732006,1.377572,,,-0.02903114,1.798947,1.371465,,45.0005395849294,42.8517621318386,5.50925689820628
0.421, 14.11,14.11,,,-0.01888555,1.736126,1.378707,,,-0.02167934,1.806298,1.372149,,45.0005395849294,42.9881644208626,5.57112517687344
0.432, 14.78,14.78,,,-0.01147028,1.74019,1.379696,,,-0.01424895,1.813729,1.372691,,45.0005395849294,43.1134676527942,5.61963574032988
0.444, 15.52,15.52,,,-0.003857287,1.744158,1.380484,,,-0.006652474,1.821325,1.373036,,45.0005395849294,43.2093532607891,5.65239289979088
0.455, 16.28,16.28,,,0.003174851,1.747505,1.381498,,,0.0004844368,1.828462,1.373657,,45.0005395849294,43.3807602683354,5.61049097105935
0.466, 17.11,17.11,,,0.009863712,1.750197,1.381545,,,0.007359266,1.835337,1.373343,,45.0005395849294,43.5941080513129,5.51263528043048
0.477, 17.79,17.79,,,0.01559182,1.75281,1.381108,,,0.01337856,1.841357,1.372709,,45.0005395849294,43.8365114582112,5.36103496715248
0.488, 18.5,18.5,,,0.02142092,1.755379,1.381186,,,0.01950797,1.847486,1.372613,,45.0005395849294,44.0665351475833,5.20375407107722
0.499, 19.21,19.21,,,0.02659681,1.757335,1.380594,,,0.0250186,1.852996,1.371869,,45.0005395849294,44.2990279502717,5.04993095817306
0.51, 19.96,19.96,,,0.03196891,1.759292,1.380117,,,0.0307098,1.858688,1.371213,,45.0005395849294,44.5081000349478,4.92242797850312
0.521, 20.69,20.69,,,0.03743328,1.761446,1.380317,,,0.03652731,1.864505,1.371101,,45.0005395849294,44.7276188936688,4.88595605001064
0.532, 21.34,21.34,,,0.04242803,1.763545,1.380423,,,0.04185891,1.869837,1.370951,,45.0005395849294,44.9213469588014,4.85195664992891
0.544, 21.16,21.16,,,0.04758978,1.764224,1.380604,,,0.04733449,1.869611,1.371383,,45.0005259245515,45.3553815628155,4.75241987903735
0.554, 19.79,19.79,,,0.05272958,1.765587,1.38039,,,0.05276799,1.864178,1.371851,,45.0005259245515,45.1911360084148,4.7001130111685
0.566, 18.78,18.78,,,0.05752715,1.76562,1.380005,,,0.05775958,1.859186,1.372023,,45.0005259245515,45.0656790972312,4.62842334763499
0.578, 17.93,17.93,,,0.06158965,1.765604,1.379978,,,0.06201407,1.854931,1.372519,,45.0005259245515,44.9280507892853,4.53181245894772
0.588, 17.17,17.17,,,0.06527114,1.765527,1.379908,,,0.06584185,1.851104,1.372945,,45.0005259245515,44.8087888595064,4.41769835722571
0.599, 16.57,16.57,,,0.06864616,1.764976,1.37944,,,0.06940302,1.847543,1.372838,,45.0005259245515,44.6601502869249,4.3533417553358
0.611, 15.84,15.84,,,0.07196018,1.765125,1.379216,,,0.07288966,1.844056,1.372962,,45.0005259245515,44.5083049406172,4.33331991011471
0.622, 15.45,15.45,,,0.0742593,1.764631,1.37903,,,0.07533145,1.841614,1.372983,,45.0005259245515,44.382690935087,4.31547561451779
0.632, 14.8,14.8,,,0.07723298,1.764783,1.379615,,,0.0784013,1.838544,1.373836,,45.0005259245515,44.2729263830848,4.32572004421409
0.643, 14.14,14.14,,,0.08016519,1.765057,1.379953,,,0.08143494,1.835511,1.374391,,45.0005259245515,44.1513387739583,4.38579411761358
0.655, 13.6,13.6,,,0.08306435,1.764741,1.380941,,,0.08443737,1.832508,1.375542,,45.0005259245515,44.027312787366,4.4569834698043
0.666, 13.19,13.19,,,0.0853861,1.764346,1.381077,,,0.08686477,1.830081,1.375839,,45.0005259245515,43.9003122534729,4.49283128977874
0.677, 12.92,12.92,,,0.08783354,1.763155,1.380701,,,0.0894008,1.827545,1.375651,,45.0005259245515,43.789420720289,4.45649980704716
0.688, 12.64,12.64,,,0.09050425,1.761857,1.380146,,,0.09211367,1.824832,1.375311,,45.0005259245515,43.7125366980362,4.38918701398937
0.699, 12.34,12.34,,,0.09323613,1.760596,1.379149,,,0.09486443,1.822081,1.374497,,45.0005259245515,43.6548250162502,4.34838986832534
0.71, 11.93,11.93,,,0.09639055,1.759424,1.378903,,,0.09806067,1.818885,1.374458,,45.0005259245515,43.5593389743105,4.33255151385447
0.721, 11.6,11.6,,,0.09898423,1.758356,1.378546,,,0.1007881,1.816158,1.374298,,45.0005259245515,43.3760679285061,4.33562467200863
0.733, 11.33,11.33,,,0.1009892,1.75749,1.378358,,,0.1030125,1.813933,1.374257,,45.0005259245515,43.1084713695553,4.40971045121367
0.744, 11.02,11.02,,,0.1028768,1.756838,1.378239,,,0.105201,1.811745,1.374281,,45.0005259245515,42.7369534852747,4.56437154292831
0.755, 10.59,10.59,,,0.1053752,1.756235,1.378229,,,0.1079577,1.808988,1.374449,,45.0005259245515,42.3583356195494,4.75546913153009
0.766, 10.43,10.43,,,0.1070505,1.755022,1.377974,,,0.1099627,1.806983,1.374301,,45.0005259245515,41.9509285072736,4.96155514296155
0.777, 10.13,10.13,,,0.1104812,1.752901,1.376557,,,0.1136097,1.803336,1.373125,,45.0005259245515,41.5991976804678,5.07825148300478
0.788, 9.98,9.98,,,0.1140949,1.749872,1.375452,,,0.1173682,1.799577,1.372237,,45.0005259245515,41.3678352740556,5.10169397224439
0.8, 9.68,9.68,,,0.1185529,1.746867,1.375238,,,0.1218801,1.795066,1.372245,,45.0005259245515,41.1768734354598,5.14098463435152
0.81, 9.31,9.31,,,0.1232728,1.743975,1.375648,,,0.1266067,1.790339,1.372829,,45.0005259245515,41.0082736355844,5.22153390676564
0.822, 9.08,9.08,,,0.1285033,1.739864,1.37535,,,0.131899,1.785047,1.372677,,45.0005259245515,40.8173835139729,5.3124202433141
0.833, 8.9,8.9,,,0.1334217,1.7357,1.375164,,,0.13693,1.780016,1.37267,,45.0005259245515,40.5787435412025,5.40653213660833
0.844, 8.75,8.75,,,0.1382263,1.731546,1.37488,,,0.1418603,1.775085,1.372566,,45.0005259245515,40.3236018318567,5.5206637406896
0.855, 8.75,8.75,,,0.1433207,1.726233,1.373844,,,0.1471655,1.76978,1.37167,,45.0005259245515,40.0387727061095,5.67315880872397
0.866, 8.75,8.75,,,0.14789,1.721483,1.373311,,,0.1519371,1.765009,1.371292,,45.0005259245515,39.7612860335157,5.82490511729142
0.877, 8.71,8.71,,,0.1540436,1.715392,1.372712,,,0.1582497,1.758696,1.37088,,45.0005259245515,39.5138760980952,5.95199913939619
0.888, 8.63,8.63,,,0.1599133,1.709806,1.372068,,,0.1642194,1.752726,1.370429,,45.0005259245515,39.3213706367899,6.04276680141112
0.899, 8.62,8.62,,,0.1659571,1.703724,1.37201,,,0.1703732,1.746573,1.370483,,45.0005259245515,39.1599152145875,6.14608749699756
0.91, 8.52,8.52,,,0.1724894,1.697658,1.372553,,,0.1769213,1.740024,1.37109,,45.0005259245515,39.0697362294852,6.21287095040941
経過時間(s),めり込み量(mm),Y軸めり込み量(mm),,デバイス先端,X座標,Y座標,Z座標,,仮想物体との接触位置,X座標,Y座標,Z座標,,接触点の法線と床の法線とのなす角,接触点の法線とデバイスの方向ベクトルのなす角,床の法線とデバイスの方向ベクトルのなす角
0, 0.86,-0.86,,,-0.1793931,1.653103,1.338217,,,-0.1791198,1.648858,1.338986,,45.0005395849294,42.3453787510544,10.6451235865778
0.011, 0.62,0.62,,,-0.1801355,1.644592,1.338992,,,-0.1803447,1.647633,1.33846,,45.0005395849294,42.0351686430577,10.4198076049601
0.021, 2.3,2.3,,,-0.1799334,1.635876,1.340159,,,-0.1807863,1.647192,1.338256,,45.0005395849294,41.5983678125068,10.2132071949211
0.033, 4.19,4.19,,,-0.1783695,1.627258,1.341761,,,-0.1800945,1.647883,1.338416,,45.0005395849294,41.0794612802279,10.1201842898823
0.044, 5.93,5.93,,,-0.1766527,1.619471,1.343881,,,-0.1793452,1.648633,1.339283,,45.0005395849294,40.5522253324879,10.1402804134086
0.055, 7.38,7.38,,,-0.1759828,1.612096,1.346032,,,-0.1795702,1.648408,1.340391,,45.0005395849294,40.1710905421235,10.2223519641916
0.066, 8.34,8.34,,,-0.1764392,1.606367,1.348099,,,-0.1805912,1.647387,1.341746,,45.0005395849294,40.0320142341138,10.2737576740019
0.077, 9.01,9.01,,,-0.1771525,1.602041,1.350362,,,-0.1816377,1.64634,1.343509,,45.0005395849294,40.0288518566161,10.2673603482486
0.089, 9.58,9.58,,,-0.1775856,1.598552,1.352514,,,-0.182301,1.645677,1.345187,,45.0005395849294,40.1021397843709,10.2657313481769
0.099, 10.3,10.3,,,-0.1775181,1.594755,1.354005,,,-0.1825833,1.645394,1.346188,,45.0005395849294,40.0929565952874,10.2136306666378
0.11, 11.13,11.13,,,-0.1768982,1.59077,1.355177,,,-0.1824593,1.645519,1.346822,,45.0005395849294,39.989393854879,10.1811855614358
0.122, 12.11,12.11,,,-0.1750346,1.587117,1.355178,,,-0.1812773,1.646701,1.346275,,45.0005395849294,39.7806940155022,10.1389997529748
0.133, 13.16,13.16,,,-0.1721146,1.584103,1.355381,,,-0.179154,1.648824,1.345905,,45.0005395849294,39.529954362954,10.1373511161098
0.143, 13.96,13.96,,,-0.1690578,1.582594,1.356192,,,-0.176718,1.65126,1.346236,,45.0005395849294,39.361706317811,10.1703793486959
0.155, 14.5,14.5,,,-0.1666458,1.582019,1.357079,,,-0.1746765,1.653301,1.34672,,45.0005395849294,39.3038341265839,10.2220633887072
0.166, 14.68,14.68,,,-0.1647372,1.583029,1.358011,,,-0.1727504,1.655228,1.347369,,45.0005395849294,39.4168908296744,10.2557814703803
0.177, 14.07,14.07,,,-0.1655009,1.585866,1.358051,,,-0.172944,1.655034,1.347729,,45.0005395849294,39.6219126122855,10.2232945302708
0.189, 14.32,14.32,,,-0.1627039,1.587575,1.359511,,,-0.1699889,1.657989,1.348874,,45.0005395849294,39.8696606420605,10.1704570420956
0.2, 14.11,14.11,,,-0.1611319,1.590613,1.360426,,,-0.1679354,1.660042,1.34978,,45.0005395849294,40.1950098639313,10.1037474401021
0.211, 14.04,14.04,,,-0.1591877,1.593239,1.359723,,,-0.1656383,1.66234,1.34916,,45.0005395849294,40.4471975165433,9.94221859336811
0.221, 14.03,14.03,,,-0.1565763,1.59614,1.35812,,,-0.1627192,1.665259,1.347748,,45.0005395849294,40.6678023753121,9.67910093084092
0.233, 14.02,14.02,,,-0.1538984,1.599116,1.356721,,,-0.1597386,1.668239,1.34651,,45.0005395849294,40.8886667812621,9.44156574113812
0.244, 13.83,13.83,,,-0.1507034,1.603666,1.35683,,,-0.1561373,1.671841,1.346771,,45.0005395849294,41.1531931702664,9.30055990474163
0.255, 13.58,13.58,,,-0.1475077,1.608508,1.357096,,,-0.1525203,1.675457,1.347099,,45.0005395849294,41.4389921828487,9.26102506337846
0.266, 13.31,13.31,,,-0.1444126,1.61332,1.357826,,,-0.1489983,1.67898,1.347924,,45.0005395849294,41.7329464410731,9.2101905281216
0.277, 13.24,13.24,,,-0.1404559,1.617936,1.357498,,,-0.1447271,1.683251,1.347631,,45.0005395849294,41.9830372256683,9.11888968447942
0.288, 13.14,13.14,,,-0.1367436,1.62235,1.356776,,,-0.1407687,1.687209,1.347017,,45.0005395849294,42.1631697996364,9.01345120342238
0.299, 12.93,12.93,,,-0.1329572,1.627451,1.356275,,,-0.136727,1.691251,1.346666,,45.0005395849294,42.330195240952,8.95738730472774
0.311, 12.76,12.76,,,-0.1281814,1.633336,1.356127,,,-0.1316592,1.696319,1.346592,,45.0005395849294,42.5532214017141,8.91947121815282
0.321, 12.27,12.27,,,-0.124361,1.640008,1.356885,,,-0.1274022,1.700576,1.347636,,45.0005395849294,42.8447372824727,8.8952539293508
0.333, 12.03,12.03,,,-0.1197997,1.646071,1.357072,,,-0.1225095,1.705468,1.347911,,45.0005395849294,43.1149566339918,8.89779390587772
0.344, 11.81,11.81,,,-0.1151786,1.652104,1.357794,,,-0.1175779,1.7104,1.348726,,45.0005395849294,43.3762045322857,8.89885343894323
0.355, 11.64,11.64,,,-0.1103463,1.657995,1.35762,,,-0.1124972,1.715481,1.348636,,45.0005395849294,43.5916628436581,8.88610574498579
0.366, 11.67,11.67,,,-0.1045941,1.663784,1.357928,,,-0.1065765,1.721401,1.348905,,45.0005395849294,43.7627112662829,8.86521134312251
0.377, 12.04,12.04,,,-0.09754729,1.669049,1.358776,,,-0.0995051,1.728473,1.349378,,45.0005395849294,43.858368062947,8.93228209135833
0.388, 12.42,12.42,,,-0.0897318,1.67494,1.360632,,,-0.09176637,1.736211,1.350798,,45.0005395849294,43.8656080632658,9.06349343675757
0.4, 13.18,13.18,,,-0.08061773,1.680101,1.362491,,,-0.08288806,1.74509,1.351927,,45.0005395849294,43.7885908523279,9.19613997561622
0.411, 13.77,13.77,,,-0.07295913,1.684732,1.36415,,,-0.0753272,1.752651,1.352979,,45.0005395849294,43.8106626080166,9.30007410755043
0.422, 14.05,14.05,,,-0.06634386,1.690121,1.365699,,,-0.06858145,1.759396,1.354176,,45.0005395849294,43.971288162258,9.37188159184384
0.433, 14.29,14.29,,,-0.0599313,1.695647,1.367198,,,-0.06188176,1.766096,1.355353,,45.0005395849294,44.2455031743303,9.42435451868228
0.444, 14.23,14.23,,,-0.05444904,1.701967,1.368688,,,-0.05589858,1.772079,1.356769,,45.0005395849294,44.6534054753072,9.46917336499505
0.455, 14.48,14.48,,,-0.04791489,1.707674,1.370945,,,-0.0489489,1.779029,1.358673,,45.0005395849294,45.0166178497882,9.54350972675829
0.466, 14.75,14.75,,,-0.04134385,1.71324,1.373146,,,-0.04207113,1.785907,1.360513,,45.0005395849294,45.2838080124947,9.62873853239729
0.477, 15.62,15.62,,,-0.03372595,1.716698,1.375183,,,-0.0343394,1.793638,1.361719,,45.0005395849294,45.4079706028666,9.68639045002977
0.489, 16.68,16.68,,,-0.02531966,1.719992,1.377522,,,-0.02585462,1.802123,1.363116,,45.0005395849294,45.4930815877457,9.70587612541593
0.499, 17.62,17.62,,,-0.01704332,1.723723,1.378775,,,-0.0174655,1.810512,1.363616,,45.0005395849294,45.5776871386403,9.66155588289869
0.51, 18.69,18.69,,,-0.008819913,1.726795,1.380496,,,-0.009085625,1.818892,1.364528,,45.0005395849294,45.6755978976678,9.5874073513324
0.522, 19.85,19.85,,,-0.0008686539,1.729436,1.382814,,,-0.0007258505,1.827252,1.365986,,45.0005395849294,45.9049658888979,9.51217025839743
0.533, 20.61,20.61,,,0.005646423,1.732817,1.38501,,,0.006432772,1.834411,1.367677,,45.0005395849294,46.2415439414516,9.44200287323283
0.544, 21.41,21.41,,,0.01136441,1.735444,1.386413,,,0.01303177,1.84101,1.368749,,45.0005395849294,46.6610404882219,9.29142708830182
0.555, 22.16,22.16,,,0.01696353,1.738325,1.387688,,,0.01961686,1.847595,1.369629,,45.0005395849294,47.1167438667749,9.23646114248571
0.566, 22.88,22.88,,,0.02260833,1.74144,1.390104,,,0.02627163,1.85425,1.371506,,45.0005395849294,47.5701420565471,9.29284435251516
0.577, 23.89,23.89,,,0.02916106,1.743938,1.392373,,,0.03369938,1.861677,1.372891,,45.0005395849294,47.9139532792306,9.39923137606679
0.589, 25.07,25.07,,,0.03668062,1.746344,1.394965,,,0.04192223,1.8699,1.374374,,45.0005395849294,48.1399027608762,9.51549741420429
0.6, 24.06,24.06,,,0.04451033,1.748482,1.397709,,,0.04989457,1.867051,1.377953,,45.0005259245515,43.2448019415951,9.55754747265932
0.61, 22.52,22.52,,,0.05173111,1.749043,1.399363,,,0.05691878,1.860027,1.38102,,45.0005259245515,43.1574779754865,9.50586514019532
0.622, 21.04,21.04,,,0.05866904,1.749526,1.400663,,,0.06371211,1.853234,1.383745,,45.0005259245515,43.0316556491924,9.42137143364528
0.633, 20.03,20.03,,,0.06393272,1.749202,1.400604,,,0.06898761,1.847958,1.384865,,45.0005259245515,42.8530257167999,9.26499254940219
0.644, 19.02,19.02,,,0.06807879,1.749722,1.4004,,,0.07337452,1.843571,1.385808,,45.0005259245515,42.5241213815651,9.15791738431083
0.655, 18.16,18.16,,,0.07103856,1.750535,1.400102,,,0.07682048,1.840125,1.386516,,45.0005259245515,42.0361385298929,9.1291409443647
0.666, 17.42,17.42,,,0.07226714,1.752261,1.399089,,,0.07875481,1.838191,1.386398,,45.0005259245515,41.3886297844051,9.1960972869351
0.677, 16.69,16.69,,,0.07341985,1.754081,1.398117,,,0.08056241,1.836383,1.386282,,45.0005259245515,40.7242709627038,9.32109828300433
0.688, 15.95,15.95,,,0.07468039,1.755968,1.397245,,,0.08238055,1.834565,1.386236,,45.0005259245515,40.0678419904081,9.49595538975904
0.7, 15.18,15.18,,,0.07602766,1.758112,1.396823,,,0.08408767,1.832858,1.386446,,45.0005259245515,39.5089617771241,9.77412678879803
0.71, 14.58,14.58,,,0.07739234,1.759494,1.396437,,,0.08569402,1.831252,1.386538,,45.0005259245515,39.0652487953254,10.015865959818
0.722, 13.91,13.91,,,0.07934764,1.760847,1.395794,,,0.08768538,1.82926,1.386346,,45.0005259245515,38.7245999501396,10.2497760267197
0.733, 13.38,13.38,,,0.0809566,1.761887,1.394552,,,0.08930579,1.82764,1.385554,,45.0005259245515,38.4306525221042,10.3926763867845
