経過時間(s),めり込み量(mm),Y軸めり込み量(mm),,デバイス先端,X座標,Y座標,Z座標,,仮想物体との接触位置,X座標,Y座標,Z座標,,接触点の法線と床の法線とのなす角,接触点の法線とデバイスの方向ベクトルのなす角,床の法線とデバイスの方向ベクトルのなす角
0.001, 0.81,-0.81,,,0.159101,1.826482,1.22639,,,0.1578991,1.822803,1.22754,,44.8235181620417,20.6777533914734,24.1613990731434
0.011, 0.62,0.62,,,0.1591309,1.819247,1.229566,,,0.1600398,1.822098,1.228684,,44.8235181620417,21.0465921341267,23.7849395471357
0.022, 1.87,1.87,,,0.1592217,1.81229,1.231426,,,0.1619018,1.820863,1.228799,,44.8235181620417,21.3597597139517,23.4680922029978
0.033, 3.1,3.1,,,0.1586911,1.806114,1.233591,,,0.1630793,1.820366,1.229273,,44.8235181620417,21.63808649979,23.1886333133361
0.044, 4.3,4.3,,,0.1589426,1.799369,1.23534,,,0.1649394,1.819148,1.22941,,44.8235181620417,21.9075084267457,22.9180246410451
0.055, 5.5,5.5,,,0.1591421,1.792381,1.236633,,,0.1667013,1.817718,1.229151,,44.8235181620417,22.2295347616776,22.5957968155382
0.068, 6.47,6.47,,,0.1598112,1.786068,1.237273,,,0.1686025,1.81597,1.22858,,44.8235181620417,22.5375523790117,22.2879841038735
0.077, 7.29,7.29,,,0.1603203,1.78048,1.237322,,,0.1701176,1.814245,1.227655,,44.8235181620417,22.8226308066567,22.0033240253036
0.089, 8.15,8.15,,,0.1606729,1.774651,1.237215,,,0.1715094,1.81244,1.226495,,44.8235181620417,23.0325412970301,21.7928927330204
0.1, 8.82,8.82,,,0.1610951,1.770311,1.2376,,,0.1727023,1.811266,1.226027,,44.8235181620417,23.1876702566899,21.636539461986
0.111, 9.36,9.36,,,0.162922,1.765975,1.238142,,,0.175093,1.809475,1.225885,,44.8235181620417,23.3433148956176,21.4802135117075
0.122, 9.74,9.74,,,0.1648962,1.762323,1.238312,,,0.1774024,1.807616,1.225565,,44.8235181620417,23.4838323735021,21.3400973074257
0.133, 9.96,9.96,,,0.1663614,1.759554,1.237883,,,0.1790514,1.805926,1.224824,,44.8235181620417,23.5650296600956,21.2601772661713
0.144, 10.2,10.2,,,0.1674717,1.75701,1.237525,,,0.1804008,1.804482,1.224132,,44.8235181620417,23.5934688594609,21.2331006895076
0.155, 10.38,10.38,,,0.1684473,1.754675,1.236884,,,0.1816352,1.802986,1.22325,,44.8235181620417,23.5685830659125,21.2575391056778
0.166, 10.44,10.44,,,0.1685248,1.753502,1.235902,,,0.1818608,1.802105,1.22223,,44.8235181620417,23.5504181783203,21.2741859837692
0.177, 10.71,10.71,,,0.1695125,1.749915,1.2342,,,0.1832205,1.799806,1.220338,,44.8235181620417,23.6572013528328,21.1663048563782
0.188, 10.82,10.82,,,0.1706076,1.746655,1.231493,,,0.1844568,1.797081,1.217721,,44.8235181620417,23.8270903508782,20.9974967357388
0.199, 10.65,10.65,,,0.1727108,1.74434,1.228647,,,0.1862988,1.794081,1.21532,,44.8235181620417,24.06384519149,20.7635234895891
0.21, 10.58,10.58,,,0.1745305,1.741869,1.226238,,,0.1879531,1.791337,1.213093,,44.8235181620417,24.2059319052926,20.6218175588222
0.222, 10.26,10.26,,,0.1774152,1.740951,1.224788,,,0.1903003,1.788915,1.212016,,44.8235181620417,24.2811510689815,20.5439499893563
0.232, 10.03,10.03,,,0.1802319,1.739711,1.223765,,,0.1927177,1.786615,1.211181,,44.8235181620417,24.2966760885329,20.5268454886033
0.244, 9.71,9.71,,,0.1820761,1.739278,1.222156,,,0.1940961,1.784706,1.209859,,44.8235181620417,24.2692972760068,20.5549243954998
0.255, 9.36,9.36,,,0.1843701,1.738216,1.219763,,,0.1958956,1.781994,1.207824,,44.8235181620417,24.2461548881955,20.5801209626468
0.266, 9.13,9.13,,,0.1868892,1.73665,1.217921,,,0.1980479,1.77938,1.206279,,44.8235181620417,24.3316534862992,20.4963674778275
0.277, 8.99,8.99,,,0.1897012,1.734024,1.215555,,,0.2005644,1.776114,1.204177,,44.8235181620417,24.5152933623085,20.3137777433739
0.288, 8.74,8.74,,,0.1917325,1.731821,1.212106,,,0.2021981,1.772825,1.201159,,44.8235181620417,24.7377287117239,20.0907362146865
0.3, 8.53,8.53,,,0.1942814,1.729152,1.208816,,,0.2043945,1.769203,1.198233,,44.8235181620417,24.9312450409982,19.8972608665461
0.311, 8.31,8.31,,,0.1976475,1.726554,1.206421,,,0.2074016,1.765625,1.19618,,44.8235181620417,25.1103138130327,19.7190339153034
0.322, 8.09,8.09,,,0.2005355,1.724201,1.203945,,,0.209933,1.762285,1.193988,,44.8235181620417,25.2388716300132,19.5935069946827
0.333, 7.97,7.97,,,0.2040744,1.72141,1.202405,,,0.2132346,1.758954,1.192579,,44.8235181620417,25.3316033982467,19.5058807927117
0.344, 7.7,7.7,,,0.2073265,1.719271,1.200088,,,0.2160926,1.755531,1.190596,,44.8235181620417,25.4131592697617,19.4288823647936
0.356, 7.68,7.68,,,0.2105247,1.715845,1.198218,,,0.2191993,1.752038,1.188763,,44.8235181620417,25.5070846135194,19.3385599457228
0.366, 7.49,7.49,,,0.2137381,1.712748,1.195253,,,0.2221265,1.74808,1.186093,,44.8235181620417,25.6607041014146,19.1856354295563
0.377, 7.56,7.56,,,0.2167034,1.708466,1.192754,,,0.2251284,1.74418,1.183579,,44.8235181620417,25.8007007773893,19.0436648289664
0.388, 7.63,7.63,,,0.2195211,1.703914,1.18965,,,0.2279829,1.740003,1.180526,,44.8235181620417,25.9968740501768,18.8418890936681
0.399, 7.69,7.69,,,0.2232885,1.699224,1.187172,,,0.2317502,1.73564,1.178123,,44.8235181620417,26.2276968716596,18.6070569512541
0.412, 7.84,7.84,,,0.2266346,1.693776,1.183951,,,0.2351739,1.730937,1.174896,,44.8235181620417,26.4950014400315,18.3362945997111
0.422, 7.98,7.98,,,0.2301322,1.68838,1.180928,,,0.2387226,1.726274,1.171851,,44.8235181620417,26.757939810098,18.0719782390179
0.433, 8.13,8.13,,,0.2335664,1.683291,1.1784,,,0.2422242,1.721952,1.16924,,44.8235181620417,26.9538791489129,17.8762489285141
0.444, 8.21,8.21,,,0.2366744,1.679149,1.176221,,,0.2453442,1.718181,1.167027,,44.8235181620417,27.0709981068993,17.7597549328194
0.455, 8.26,8.26,,,0.2392024,1.674623,1.172767,,,0.2479109,1.713913,1.163557,,44.8235181620417,27.1302209679972,17.6996339018707
0.466, 8.35,8.35,,,0.2409246,1.67066,1.169677,,,0.2497372,1.710412,1.160432,,44.8235181620417,27.1954014614328,17.6322472573945
0.477, 8.49,8.49,,,0.242746,1.666237,1.166448,,,0.25177,1.706646,1.15714,,44.8235181620417,27.2156068679827,17.6089955865596
0.489, 8.68,8.68,,,0.2442376,1.66161,1.16306,,,0.2535002,1.702954,1.153649,,44.8235181620417,27.2887035504461,17.5348351021626
0.499, 8.84,8.84,,,0.2472505,1.656418,1.159959,,,0.2566199,1.698552,1.150543,,44.8235181620417,27.5025089560853,17.3212346021927
0.511, 9.14,9.14,,,0.2502586,1.650372,1.156875,,,0.259813,1.694007,1.147309,,44.8235181620417,27.7839588458347,17.0400476747191
0.522, 9.35,9.35,,,0.2539261,1.644202,1.153461,,,0.2634852,1.688936,1.143809,,44.8235181620417,28.1082340204883,16.7153456132542
0.533, 9.48,9.48,,,0.2580144,1.63899,1.15115,,,0.2675164,1.684411,1.141442,,44.8235181620417,28.3505964462527,16.4730651497576
0.544, 9.62,9.62,,,0.2610912,1.633895,1.148112,,,0.2705935,1.680051,1.138352,,44.8235181620417,28.5594943611098,16.2644523952904
0.555, 9.63,9.63,,,0.2639591,1.629797,1.145159,,,0.273426,1.67601,1.13547,,44.8235181620417,28.6645341298852,16.1591821076369
0.567, 9.82,9.82,,,0.2659203,1.625186,1.142152,,,0.2755568,1.672303,1.132358,,44.8235181620417,28.7435013597768,16.0800048494342
0.577, 9.94,9.94,,,0.2682765,1.620607,1.139032,,,0.2780545,1.668317,1.129219,,44.8235181620417,28.809159966441,16.0147372710891
0.588, 9.95,9.95,,,0.2707722,1.616413,1.135574,,,0.2805619,1.664196,1.125898,,44.8235181620417,28.9306553680163,15.894971614873
0.6, 10.05,10.05,,,0.2726368,1.611452,1.131162,,,0.2825265,1.659754,1.12158,,44.8235181620417,29.0910486958323,15.7388659381891
0.611, 10.04,10.04,,,0.2756488,1.607118,1.127826,,,0.2854645,1.655416,1.118385,,44.8235181620417,29.2572374389979,15.5747125913395
0.622, 10.1,10.1,,,0.2781278,1.602784,1.124548,,,0.2879261,1.651407,1.115177,,44.8235181620417,29.4249322388335,15.4088294991309
0.633, 10.08,10.08,,,0.2808937,1.598488,1.120965,,,0.290567,1.647077,1.111694,,44.8235181620417,29.5884947743362,15.2445105201986
0.644, 10.08,10.08,,,0.2833487,1.594368,1.11748,,,0.2929471,1.642979,1.108278,,44.8235181620417,29.7067151002956,15.1261160244202
0.655, 10.15,10.15,,,0.2857068,1.590241,1.11451,,,0.2953069,1.63922,1.105322,,44.8235181620417,29.8258984829012,15.0074431984409
0.666, 10.14,10.14,,,0.2884119,1.58604,1.111054,,,0.2979013,1.634998,1.101946,,44.8235181620417,29.9666516023054,14.865723607296
0.678, 10.3,10.3,,,0.2909761,1.581197,1.10802,,,0.3005329,1.63096,1.098866,,44.8235181620417,30.1128825332716,14.7201056857908
0.688, 10.27,10.27,,,0.2935231,1.576712,1.103818,,,0.3029632,1.626403,1.094852,,44.8235181620417,30.3246388822168,14.5110455539454
0.7, 10.39,10.39,,,0.2955595,1.572189,1.100213,,,0.3049896,1.622469,1.091316,,44.8235181620417,30.5496662883501,14.2883147988566
0.711, 10.42,10.42,,,0.2978312,1.567733,1.09632,,,0.3071551,1.618249,1.087513,,44.8235181620417,30.7625803543274,14.0748611479499
0.722, 10.34,10.34,,,0.300595,1.563541,1.092278,,,0.3097211,1.613672,1.083605,,44.8235181620417,30.9081863230019,13.9269713348352
0.734, 10.32,10.32,,,0.3035356,1.559374,1.089033,,,0.3125155,1.609444,1.08042,,44.8235181620417,31.0483554612484,13.7838635077802
経過時間(s),めり込み量(mm),Y軸めり込み量(mm),,デバイス先端,X座標,Y座標,Z座標,,仮想物体との接触位置,X座標,Y座標,Z座標,,接触点の法線と床の法線とのなす角,接触点の法線とデバイスの方向ベクトルのなす角,床の法線とデバイスの方向ベクトルのなす角
0.001, 0.75,-0.75,,,0.1658468,1.815055,1.217537,,,0.1648435,1.811675,1.218747,,44.8235181620417,20.2769459492995,24.7445025516448
0.011, 0.72,0.72,,,0.1642233,1.807794,1.219403,,,0.1651752,1.811087,1.218248,,44.8235181620417,20.7781315562699,24.2492814072011
0.022, 2.36,2.36,,,0.1623486,1.799968,1.221687,,,0.1653884,1.810751,1.217985,,44.8235181620417,21.2654501720638,23.7599974045282
0.033, 3.72,3.72,,,0.1611696,1.793416,1.223875,,,0.165894,1.81048,1.218107,,44.8235181620417,21.6174422535981,23.4065983040641
0.044, 5.03,5.03,,,0.1600929,1.787075,1.225822,,,0.1663666,1.810155,1.21812,,44.8235181620417,21.934805277004,23.0953585450787
0.055, 6.4,6.4,,,0.1588559,1.78076,1.228267,,,0.166731,1.810215,1.21857,,44.8235181620417,22.242097186759,22.7883739938278
0.066, 7.87,7.87,,,0.1582233,1.773902,1.231399,,,0.1677741,1.810208,1.219602,,44.8235181620417,22.536787397846,22.4942643488041
0.077, 9.22,9.22,,,0.1580284,1.767229,1.234048,,,0.169084,1.809826,1.220372,,44.8235181620417,22.7904811071281,22.2388391866156
0.089, 10.62,10.62,,,0.1577232,1.760188,1.236497,,,0.170245,1.8094,1.22093,,44.8235181620417,23.1317668674363,21.9009907189115
0.1, 11.79,11.79,,,0.1585723,1.753146,1.237762,,,0.1721358,1.807963,1.220789,,44.8235181620417,23.6106126338006,21.4257939810098
0.111, 12.96,12.96,,,0.159654,1.7462,1.2393,,,0.1741625,1.80664,1.220945,,44.8235181620417,24.0824318432517,20.9662247154942
0.123, 13.93,13.93,,,0.1622635,1.739622,1.241006,,,0.1773853,1.80473,1.221466,,44.8235181620417,24.4987216162959,20.5837734062039
0.133, 14.67,14.67,,,0.1630254,1.734925,1.241584,,,0.1786842,1.803593,1.221157,,44.8235181620417,24.7471697404414,20.3493288770145
0.144, 15.29,15.29,,,0.1637689,1.73039,1.241326,,,0.1799212,1.802053,1.220217,,44.8235181620417,24.9439765132568,20.1512841324465
0.155, 15.67,15.67,,,0.1642168,1.727604,1.241243,,,0.1808077,1.801101,1.219758,,44.8235181620417,25.0011264119993,20.0740176196108
0.166, 15.92,15.92,,,0.1645261,1.72495,1.24005,,,0.1814364,1.799653,1.218338,,44.8235181620417,25.0306516114123,20.0267424665861
0.177, 15.86,15.86,,,0.16494,1.723804,1.238332,,,0.1819408,1.798208,1.216798,,44.8235181620417,24.9867471566492,20.0458618730883
0.189, 15.57,15.57,,,0.1654972,1.723439,1.235785,,,0.1823113,1.796434,1.214661,,44.8235181620417,24.9160820214627,20.1030117718307
0.199, 15,15,,,0.1655822,1.726799,1.23568,,,0.1819023,1.797032,1.215098,,44.8235181620417,24.7190259467496,20.3107878281479
0.211, 14.7,14.7,,,0.1662432,1.727662,1.234915,,,0.1822422,1.796479,1.214654,,44.8235181620417,24.6711907182285,20.3672547079923
0.222, 14.07,14.07,,,0.1697264,1.726673,1.231354,,,0.1849972,1.792541,1.211841,,44.8235181620417,24.6383614148964,20.4181310781567
0.233, 13.07,13.07,,,0.1744274,1.726289,1.226414,,,0.1884757,1.787449,1.208118,,44.8235181620417,24.6291030937341,20.466902042568
0.244, 12.45,12.45,,,0.177037,1.726459,1.223618,,,0.1903128,1.784697,1.206063,,44.8235181620417,24.6258006973623,20.5037116385282
0.255, 11.77,11.77,,,0.1794092,1.726634,1.220034,,,0.1918846,1.781661,1.203342,,44.8235181620417,24.6150294893409,20.54210071569
0.267, 11.12,11.12,,,0.1821762,1.726075,1.216088,,,0.1939217,1.778053,1.200277,,44.8235181620417,24.6181611309882,20.5533978482628
0.278, 10.53,10.53,,,0.1842579,1.72533,1.211785,,,0.1953594,1.77459,1.196816,,44.8235181620417,24.6515231890608,20.5229676488099
0.289, 10.03,10.03,,,0.1873234,1.723892,1.208234,,,0.1978304,1.770833,1.193974,,44.8235181620417,24.714861239019,20.4734948824809
0.3, 9.53,9.53,,,0.1905407,1.722463,1.204808,,,0.2004447,1.76706,1.191253,,44.8235181620417,24.7808169589039,20.425960182275
0.311, 9.2,9.2,,,0.1935706,1.719326,1.200289,,,0.2030057,1.762424,1.187258,,44.8235181620417,24.9554000043258,20.2681145149484
0.322, 8.95,8.95,,,0.1976052,1.715341,1.196272,,,0.2066152,1.757329,1.183662,,44.8235181620417,25.192617590241,20.0557417414478
0.333, 8.77,8.77,,,0.2022691,1.710411,1.192141,,,0.2108609,1.751643,1.179866,,44.8235181620417,25.5229562651616,19.765994879635
0.344, 8.43,8.43,,,0.2068263,1.706208,1.187482,,,0.2148718,1.745903,1.175759,,44.8235181620417,25.8269816370369,19.5014821510086
0.355, 8.27,8.27,,,0.2108471,1.701515,1.18323,,,0.2185878,1.740496,1.171829,,44.8235181620417,26.0827192803713,19.2629992725849
0.367, 8.1,8.1,,,0.2143869,1.696537,1.178129,,,0.2219327,1.734764,1.167067,,44.8235181620417,26.2273638999468,19.0985488125147
0.377, 7.95,7.95,,,0.2173576,1.691773,1.172979,,,0.2247899,1.729324,1.16223,,44.8235181620417,26.30360929953,18.9833815810294
0.389, 7.7,7.7,,,0.2197171,1.687522,1.16705,,,0.2269381,1.723934,1.156757,,44.8235181620417,26.4007875207894,18.8458437730875
0.4, 7.72,7.72,,,0.2220512,1.682045,1.161697,,,0.2293045,1.71855,1.15151,,44.8235181620417,26.5003597232863,18.7073531537828
0.411, 7.73,7.73,,,0.2244145,1.676642,1.156483,,,0.2316942,1.713236,1.146384,,44.8235181620417,26.5904465008373,18.5859824031565
0.422, 7.83,7.83,,,0.2264825,1.670428,1.150534,,,0.233839,1.707513,1.140435,,44.8235181620417,26.7318877617812,18.417138424025
0.433, 7.97,7.97,,,0.2297184,1.663911,1.145672,,,0.2371419,1.701717,1.135542,,44.8235181620417,26.9546492527204,18.1753958379105
0.444, 8.02,8.02,,,0.2333822,1.657188,1.14013,,,0.2407447,1.695315,1.130091,,44.8235181620417,27.2380303784039,17.882145089151
0.455, 8.13,8.13,,,0.2374467,1.650486,1.135498,,,0.2447522,1.6892,1.12545,,44.8235181620417,27.5382291369032,17.590381614042
0.466, 8.34,8.34,,,0.2415622,1.643274,1.131053,,,0.2488833,1.683031,1.120857,,44.8235181620417,27.8245489513952,17.3201110361055
0.478, 8.38,8.38,,,0.2462118,1.636774,1.126715,,,0.2534074,1.676793,1.116559,,44.8235181620417,28.0896507838211,17.0731245724017
0.489, 8.42,8.42,,,0.2503305,1.631172,1.123115,,,0.25746,1.671408,1.112996,,44.8235181620417,28.2716377540973,16.8963234231086
0.5, 8.5,8.5,,,0.2540359,1.625131,1.118918,,,0.2611877,1.665793,1.108783,,44.8235181620417,28.3987219578054,16.7619821436093
0.511, 8.54,8.54,,,0.2577888,1.619271,1.114654,,,0.2649903,1.660124,1.104568,,44.8235181620417,28.462104403992,16.673510705752
0.522, 8.48,8.48,,,0.2614319,1.613931,1.110144,,,0.2686056,1.654511,1.100245,,44.8235181620417,28.5421303131755,16.5633670782614
0.533, 8.57,8.57,,,0.2653496,1.607766,1.106038,,,0.2725868,1.648814,1.09617,,44.8235181620417,28.6811895457127,16.3994288823648
0.545, 8.54,8.54,,,0.2696305,1.602036,1.101854,,,0.2768017,1.643004,1.092169,,44.8235181620417,28.8686679879288,16.1911661750828
0.555, 8.49,8.49,,,0.2751213,1.596163,1.09842,,,0.2821514,1.636937,1.088939,,44.8235181620417,29.1077382626048,15.9441387302451
0.566, 8.44,8.44,,,0.2805822,1.590333,1.095028,,,0.2874736,1.630913,1.085741,,44.8235181620417,29.3389879708988,15.7062756914713
0.577, 8.21,8.21,,,0.2868886,1.58513,1.091815,,,0.2934758,1.624656,1.082895,,44.8235181620417,29.5773718115824,15.4697513697375
0.589, 8.01,8.01,,,0.2927393,1.580258,1.0889,,,0.299094,1.618833,1.080278,,44.8235181620417,29.7293674220476,15.3172434950988
0.6, 7.88,7.88,,,0.2977298,1.575492,1.086008,,,0.3039452,1.613502,1.077589,,44.8235181620417,29.848967446181,15.1923415367698
0.611, 7.68,7.68,,,0.3028253,1.570486,1.082111,,,0.3088206,1.607531,1.074021,,44.8235181620417,30.0258693407615,15.0057680945936
