経過時間(s),めり込み量(mm),Y軸めり込み量(mm),,デバイス先端,X座標,Y座標,Z座標,,仮想物体との接触位置,X座標,Y座標,Z座標,,接触点の法線と床の法線とのなす角,接触点の法線とデバイスの方向ベクトルのなす角,床の法線とデバイスの方向ベクトルのなす角
0.001, 0.32,-0.32,,,0.1152775,1.54006,0.9256881,,,0.1152096,1.538555,0.9262013,,44.7500116682395,26.2767086002325,18.7339003908006
0.01, 1.08,1.08,,,0.1154443,1.532939,0.927407,,,0.1156468,1.538037,0.9256834,,44.7500116682395,26.3997817754621,18.5533716658717
0.021, 2.52,2.52,,,0.1142747,1.525228,0.9287928,,,0.1147052,1.537155,0.9248018,,44.7500116682395,26.5657843959779,18.3528099966646
0.032, 3.93,3.93,,,0.1126521,1.517519,0.9299507,,,0.1132741,1.536143,0.9237897,,44.7500116682395,26.7529247438395,18.1423138175861
0.043, 5.39,5.39,,,0.1115103,1.509417,0.9309762,,,0.1123038,1.535017,0.9226635,,44.7500116682395,27.0594175214838,17.8169663032627
0.055, 6.91,6.91,,,0.1107177,1.500075,0.9310389,,,0.111634,1.533005,0.9206522,,44.7500116682395,27.5328298725145,17.3206830644326
0.066, 8.28,8.28,,,0.1108245,1.491541,0.9309099,,,0.1117725,1.531102,0.9187484,,44.7500116682395,27.9403018715856,16.8876268849899
0.077, 9.67,9.67,,,0.112168,1.484368,0.9323614,,,0.1130287,1.530642,0.9182882,,44.7500116682395,28.1009701145081,16.6963132916616
0.088, 11.1,11.1,,,0.1130393,1.477407,0.9342284,,,0.1137391,1.530543,0.9181898,,44.7500116682395,28.2123790345073,16.5614512102526
0.099, 12.45,12.45,,,0.1150688,1.47135,0.9365668,,,0.1155519,1.53098,0.9186268,,44.7500116682395,28.2592136403427,16.4998172924448
0.11, 13.51,13.51,,,0.1157261,1.46582,0.9375221,,,0.1161386,1.530575,0.9182221,,44.7500116682395,28.405577759994,16.3500397858508
0.121, 14.43,14.43,,,0.1154185,1.461008,0.938235,,,0.1159013,1.530188,0.9178347,,44.7500116682395,28.5721916824235,16.1846006559258
0.132, 14.99,14.99,,,0.1143226,1.457768,0.9383385,,,0.1151386,1.529695,0.9173418,,44.7500116682395,28.7327984536452,16.0352244229344
0.143, 15.09,15.09,,,0.1113206,1.457011,0.9381063,,,0.1128302,1.52945,0.9170963,,44.7500116682395,28.8466679492244,15.9643407217005
0.155, 14.78,14.78,,,0.1072303,1.458846,0.9380486,,,0.1095927,1.52978,0.9174261,,44.7500116682395,28.8424639679072,16.0628218015079
0.166, 14.48,14.48,,,0.1060223,1.463458,0.9410617,,,0.1089707,1.532783,0.9204294,,44.7500116682395,28.5137064817355,16.4855609804964
0.177, 14.16,14.16,,,0.1057208,1.46615,0.9418224,,,0.1089216,1.533881,0.9215275,,44.7500116682395,28.4282061760845,16.6280182320511
0.188, 14.12,14.12,,,0.1078934,1.466256,0.9415287,,,0.1108803,1.533906,0.9215525,,44.7500116682395,28.6429814685589,16.3767936360853
0.199, 14.23,14.23,,,0.1103397,1.466116,0.942031,,,0.1129089,1.534308,0.9219546,,44.7500116682395,28.6635437524831,16.2835376508476
0.21, 14.47,14.47,,,0.1128289,1.467477,0.945055,,,0.1151167,1.536793,0.9244401,,44.7500116682395,28.4902038014555,16.4102632696342
0.221, 14.87,14.87,,,0.1163497,1.470415,0.9507222,,,0.1183478,1.541584,0.9292308,,44.7500116682395,28.2354650732595,16.6225404204892
0.232, 14.81,14.81,,,0.11699,1.473173,0.9531293,,,0.1189935,1.543992,0.9316381,,44.7500116682395,28.1579407207898,16.7014000749044
0.243, 14.59,14.59,,,0.1166685,1.476663,0.9552946,,,0.1188193,1.546403,0.93405,,44.7500116682395,28.1046310958014,16.7749799932381
0.254, 14.43,14.43,,,0.1160276,1.479941,0.9575335,,,0.1184048,1.54892,0.9365669,,44.7500116682395,28.1512471355895,16.7607151435535
0.266, 14.19,14.19,,,0.1150345,1.484358,0.9605244,,,0.1176555,1.552133,0.93978,,44.7500116682395,28.0553461596693,16.8976399420345
0.277, 13.99,13.99,,,0.1145259,1.489518,0.9645817,,,0.1173362,1.556296,0.943943,,44.7500116682395,27.9131177194454,17.075754195159
0.288, 13.72,13.72,,,0.1146059,1.494527,0.9680452,,,0.1174585,1.559962,0.9476085,,44.7500116682395,27.7496388537577,17.2551115426779
0.299, 13.61,13.61,,,0.1156178,1.500106,0.9731104,,,0.1184087,1.564959,0.9526057,,44.7500116682395,27.5469734863447,17.4496319097322
0.31, 13.38,13.38,,,0.1166495,1.505909,0.97751,,,0.1193388,1.569602,0.9572485,,44.7500116682395,27.4429309251605,17.5437314233089
0.321, 13.16,13.16,,,0.1176198,1.511967,0.9823108,,,0.1202199,1.574551,0.9621973,,44.7500116682395,27.2705898892713,17.7073264022093
0.332, 13.03,13.03,,,0.1180398,1.518443,0.988157,,,0.1206604,1.580325,0.9679717,,44.7500116682395,27.0253229256431,17.9595686963332
0.344, 12.9,12.9,,,0.1185083,1.524858,0.9939049,,,0.1211394,1.586029,0.9736751,,44.7500116682395,26.7952121513615,18.1953553576572
0.355, 12.65,12.65,,,0.1188675,1.531698,0.9992809,,,0.1214987,1.591614,0.979261,,44.7500116682395,26.6234482664411,18.3759745825901
0.366, 12.57,12.57,,,0.1191626,1.5383,1.005449,,,0.1218473,1.597805,0.9854518,,44.7500116682395,26.5302315547901,18.4822198797204
0.377, 12.37,12.37,,,0.1192632,1.544746,1.010653,,,0.1219898,1.603275,0.9909213,,44.7500116682395,26.4815254771741,18.5477470052467
0.388, 12.01,12.01,,,0.119994,1.553465,1.017197,,,0.1227482,1.610241,0.9978875,,44.7500116682395,26.3387694048515,18.7126004464667
0.399, 11.68,11.68,,,0.1201932,1.561935,1.023743,,,0.1229697,1.617075,1.004721,,44.7500116682395,26.0997486490455,18.972617203197
0.41, 11.26,11.26,,,0.1205535,1.570983,1.030293,,,0.1232964,1.624069,1.011716,,44.7500116682395,25.8535596099051,19.2334552901521
0.422, 10.95,10.95,,,0.1209135,1.580122,1.037578,,,0.1236347,1.631622,1.019269,,44.7500116682395,25.577046239241,19.5227598972284
0.432, 10.63,10.63,,,0.1205655,1.589442,1.04508,,,0.123264,1.639358,1.027004,,44.7500116682395,25.2507544512911,19.8623603084058
0.444, 10.53,10.53,,,0.1204382,1.59885,1.05401,,,0.1231397,1.648154,1.0358,,44.7500116682395,24.8930506242224,20.2267269848245
0.455, 10.32,10.32,,,0.1210791,1.608024,1.062018,,,0.1237365,1.65626,1.043906,,44.7500116682395,24.5869232616884,20.5343330832725
0.466, 10.29,10.29,,,0.1218874,1.616825,1.070739,,,0.1245261,1.66485,1.052496,,44.7500116682395,24.3676349218456,20.749945073897
0.477, 10.24,10.24,,,0.1222793,1.625118,1.078777,,,0.1248791,1.672895,1.060542,,44.7500116682395,24.2736498139343,20.8362581720365
0.488, 10.29,10.29,,,0.1231182,1.632972,1.086994,,,0.1257276,1.680927,1.068574,,44.7500116682395,24.1532455350485,20.9557420829572
0.499, 10.3,10.3,,,0.1227954,1.641531,1.095711,,,0.1254721,1.689519,1.077165,,44.7500116682395,24.0444559925232,21.0817863903931
0.51, 10.22,10.22,,,0.1221135,1.650396,1.1041,,,0.124865,1.697914,1.08556,,44.7500116682395,23.8746318812731,21.2792505688978
0.521, 10.23,10.23,,,0.1213489,1.659033,1.112996,,,0.1242021,1.70654,1.094187,,44.7500116682395,23.6048223410928,21.577120232955
0.533, 10.38,10.38,,,0.1217405,1.667711,1.122787,,,0.1246684,1.715792,1.103439,,44.7500116682395,23.2933179122844,21.8982074169022
0.544, 10.75,10.75,,,0.1221841,1.675753,1.133422,,,0.1251737,1.725439,1.113086,,44.7500116682395,22.9521670482086,22.226582412491
0.555, 11.1,11.1,,,0.1233268,1.682595,1.142632,,,0.1263527,1.733815,1.121461,,44.7500116682395,22.7469164542668,22.4152783358928
0.566, 11.8,11.8,,,0.1245036,1.687625,1.152241,,,0.1276537,1.742043,1.129689,,44.7500116682395,22.6865239233061,22.4590239887621
0.577, 12.48,12.48,,,0.1250713,1.692384,1.161468,,,0.1283372,1.749974,1.13762,,44.7500116682395,22.6942095934558,22.4355742424467
0.588, 13.33,13.33,,,0.124859,1.69611,1.170636,,,0.1282966,1.757659,1.145305,,44.7500116682395,22.8121071929859,22.3070471613165
0.599, 14.08,14.08,,,0.1251844,1.699928,1.179292,,,0.1287747,1.765002,1.152648,,44.7500116682395,22.9115325464197,22.1993384961973
経過時間(s),めり込み量(mm),Y軸めり込み量(mm),,デバイス先端,X座標,Y座標,Z座標,,仮想物体との接触位置,X座標,Y座標,Z座標,,接触点の法線と床の法線とのなす角,接触点の法線とデバイスの方向ベクトルのなす角,床の法線とデバイスの方向ベクトルのなす角
0.011, 0.74,-0.74,,,0.1066616,1.55633,0.9393691,,,0.1063211,1.552847,0.9404936,,44.7500116682395,27.5823094690325,18.4037939423054
0.017, 0.83,0.83,,,0.1072213,1.546298,0.9391661,,,0.1075661,1.550259,0.9379061,,44.7500116682395,27.7333061643594,18.0088006985007
0.023, 2.33,2.33,,,0.1096807,1.536972,0.9391739,,,0.1104893,1.548037,0.9356837,,44.7500116682395,27.758137316396,17.6979263546257
0.033, 3.65,3.65,,,0.1110601,1.528677,0.9391779,,,0.1121402,1.54608,0.9337265,,44.7500116682395,27.7984764125115,17.4645797783148
0.045, 5.02,5.02,,,0.1130681,1.52081,0.9398626,,,0.1142922,1.544727,0.9323733,,44.7500116682395,27.7429486836518,17.3570777264122
0.055, 6.22,6.22,,,0.1141163,1.513745,0.9403055,,,0.1153875,1.543392,0.9310387,,44.7500116682395,27.7337689096628,17.2626042599889
0.066, 7.22,7.22,,,0.1144365,1.506988,0.9397843,,,0.1156973,1.541476,0.9291227,,44.7500116682395,27.8877572277629,17.0426807125708
0.077, 8.3,8.3,,,0.1148918,1.500322,0.9397571,,,0.1161681,1.540013,0.9276598,,44.7500116682395,28.1002597748542,16.790592097699
0.088, 9.29,9.29,,,0.114455,1.494446,0.9398668,,,0.1158741,1.538916,0.926563,,44.7500116682395,28.3947228821576,16.4954869526315
0.099, 10.09,10.09,,,0.1126093,1.488343,0.9385083,,,0.1142239,1.536749,0.9243956,,44.7500116682395,28.7993142490264,16.1061730109636
0.11, 10.92,10.92,,,0.1108616,1.481961,0.9369062,,,0.1127567,1.534474,0.9221203,,44.7500116682395,29.3360065934091,15.5998271962188
0.122, 11.36,11.36,,,0.1083504,1.476628,0.9338444,,,0.1105751,1.531428,0.919075,,44.7500116682395,29.992848792138,14.9985912735229
0.132, 12.14,12.14,,,0.1068291,1.471206,0.9328817,,,0.1093265,1.529877,0.917524,,44.7500116682395,30.4144387918306,14.6058895581209
0.144, 12.81,12.81,,,0.1073836,1.467928,0.9336176,,,0.1100434,1.529864,0.9175106,,44.7500116682395,30.5067966072175,14.5195064505443
0.155, 13.71,13.71,,,0.1087872,1.465092,0.9363381,,,0.11154,1.531346,0.9189923,,44.7500116682395,30.4077861877642,14.5998345955902
0.166, 14.59,14.59,,,0.1108978,1.46313,0.9399687,,,0.1136173,1.533591,0.9212377,,44.7500116682395,30.1817240080004,14.7885629623896
0.177, 15.46,15.46,,,0.1130711,1.460027,0.9422306,,,0.1158024,1.534692,0.9223388,,44.7500116682395,30.143895006335,14.8038198970235
0.188, 16.17,16.17,,,0.1143654,1.457742,0.9441569,,,0.117114,1.535863,0.9235095,,44.7500116682395,30.2520305582655,14.6818737029756
0.199, 15.98,15.98,,,0.1118199,1.458859,0.943995,,,0.1151528,1.536052,0.923699,,44.7500116682395,30.3542784872953,14.6730183629631
0.21, 15.8,15.8,,,0.109964,1.46129,0.9452258,,,0.1139433,1.537659,0.9253053,,44.7500116682395,30.504074776909,14.6507160883963
0.222, 15.4,15.4,,,0.1075589,1.465052,0.9465079,,,0.1122949,1.539415,0.9270614,,44.7500116682395,30.5295616270876,14.8215459449737
0.232, 15.44,15.44,,,0.1083127,1.464535,0.9458046,,,0.1131504,1.53919,0.9268367,,44.7500116682395,30.9332872675032,14.4503917682562
0.244, 15.72,15.72,,,0.1093875,1.465064,0.9479923,,,0.1143737,1.541111,0.9287577,,44.7500116682395,30.9988400062382,14.4016190962977
0.255, 16.03,16.03,,,0.1111896,1.466189,0.9512156,,,0.1161742,1.543678,0.9313248,,44.7500116682395,30.7903928838538,14.5800407079263
0.266, 16.32,16.32,,,0.1135812,1.467738,0.9547837,,,0.118328,1.546568,0.9342144,,44.7500116682395,30.5408143634321,14.748049696455
0.277, 16.7,16.7,,,0.1165921,1.469184,0.958734,,,0.1211071,1.549769,0.9374152,,44.7500116682395,30.325755618115,14.8874060422128
0.288, 16.96,16.96,,,0.1193626,1.471413,0.9628508,,,0.1236594,1.553223,0.9408695,,44.7500116682395,30.0878089095262,15.0657047104398
0.299, 17.13,17.13,,,0.1218619,1.472324,0.9648113,,,0.1259491,1.554974,0.9426203,,44.7500116682395,30.0837893433115,15.0244332935285
0.31, 17.17,17.17,,,0.1226342,1.47499,0.9677784,,,0.1267153,1.557793,0.9454396,,44.7500116682395,30.0144287742201,15.0903326643543
0.321, 17.14,17.14,,,0.1224579,1.477722,0.9703331,,,0.1267082,1.560357,0.9480036,,44.7500116682395,30.0013182264731,15.1343856757277
0.332, 16.75,16.75,,,0.1214885,1.481108,0.9712934,,,0.1259728,1.561857,0.949504,,44.7500116682395,30.0414968131477,15.1579122616691
0.343, 16.48,16.48,,,0.1202401,1.486112,0.9746685,,,0.1250493,1.565499,0.9531461,,44.7500116682395,30.0013318868511,15.2809137199144
0.354, 16.23,16.23,,,0.1187711,1.490499,0.9776301,,,0.1238158,1.568651,0.9562981,,44.7500116682395,29.9261724873158,15.4246960281313
0.366, 16.14,16.14,,,0.1184652,1.494946,0.9816324,,,0.1236844,1.572574,0.9602203,,44.7500116682395,29.7902209907644,15.6067974040728
0.377, 16.08,16.08,,,0.1181093,1.499284,0.9857473,,,0.1234074,1.576557,0.9642032,,44.7500116682395,29.6414082483639,15.7766932323072
0.388, 16.06,16.06,,,0.1189587,1.504126,0.9906178,,,0.1242353,1.58123,0.9688767,,44.7500116682395,29.4736314862605,15.9374622205172
0.399, 16.12,16.12,,,0.1192809,1.50815,0.9951432,,,0.1245259,1.585502,0.9731491,,44.7500116682395,29.3448141220987,16.0511524236356
0.41, 16.27,16.27,,,0.1192372,1.511947,0.9999945,,,0.1244092,1.590016,0.9776624,,44.7500116682395,29.244608419574,16.1201885587504
0.422, 16.34,16.34,,,0.1199179,1.51639,1.004974,,,0.1249708,1.594754,0.982401,,44.7500116682395,29.1286113201275,16.2017444302655
0.432, 16.53,16.53,,,0.120734,1.520937,1.010826,,,0.1256845,1.600153,0.9877993,,44.7500116682395,28.9781729927498,16.3144579163598
0.444, 16.74,16.74,,,0.1215535,1.525744,1.017145,,,0.1264274,1.605896,0.9935424,,44.7500116682395,28.7697907571606,16.4903506505186
0.455, 16.97,16.97,,,0.1222501,1.531523,1.024639,,,0.1270892,1.61266,1.000307,,44.7500116682395,28.4797126311823,16.7561081810865
0.466, 17.07,17.07,,,0.1225491,1.537301,1.031279,,,0.127392,1.618795,1.006442,,44.7500116682395,28.2234507708437,17.0045016637202
0.477, 17.22,17.22,,,0.1223314,1.543029,1.038144,,,0.1273019,1.625151,1.012797,,44.7500116682395,28.0274653282532,17.2146887767473
0.488, 17.19,17.19,,,0.1212086,1.549259,1.044319,,,0.1264288,1.631195,1.018842,,44.7500116682395,27.9279153238705,17.3646199625933
0.499, 17.23,17.23,,,0.1192917,1.554657,1.049997,,,0.1248106,1.636749,1.024395,,44.7500116682395,27.902443841617,17.4500092776734
0.51, 17.27,17.27,,,0.117533,1.560424,1.055943,,,0.1233122,1.642662,1.030308,,44.7500116682395,27.9311972296753,17.4765804203526
0.521, 17.45,17.45,,,0.1170822,1.565579,1.062268,,,0.1230336,1.648666,1.036312,,44.7500116682395,27.9047934266261,17.527443130139
0.532, 17.69,17.69,,,0.1173828,1.570726,1.068997,,,0.1233782,1.654919,1.042566,,44.7500116682395,27.8226535739533,17.5999626616336
0.544, 18.07,18.07,,,0.1179165,1.57623,1.077075,,,0.123978,1.662155,1.049802,,44.7500116682395,27.6382743299869,17.7680484897883
0.555, 18.34,18.34,,,0.1181243,1.582501,1.085231,,,0.1242772,1.669596,1.057242,,44.7500116682395,27.4352384248218,17.9686938288104
0.566, 18.58,18.58,,,0.1176213,1.58795,1.092352,,,0.1238714,1.676127,1.063773,,44.7500116682395,27.2951905224298,18.1101504576796
0.577, 18.92,18.92,,,0.1176812,1.593423,1.100093,,,0.124056,1.68311,1.070757,,44.7500116682395,27.1435125157521,18.262321945511
0.588, 19.18,19.18,,,0.1180653,1.599522,1.108023,,,0.1244732,1.690358,1.078005,,44.7500116682395,26.9664740173919,18.4262601414077
0.599, 19.51,19.51,,,0.1182459,1.604861,1.115591,,,0.1247555,1.697211,1.084858,,44.7500116682395,26.8473008800698,18.5422060144367
0.61, 19.8,19.8,,,0.1179389,1.610122,1.122767,,,0.1246286,1.703802,1.091449,,44.7500116682395,26.7758434429617,18.6288042729662
0.621, 20.08,20.08,,,0.1170787,1.61513,1.129556,,,0.1239583,1.710145,1.097792,,44.7500116682395,26.783150037623,18.6396745187278
0.633, 20.46,20.46,,,0.1170038,1.619883,1.136626,,,0.1240857,1.716731,1.104378,,44.7500116682395,26.8569399842678,18.5804960538583
0.644, 20.78,20.78,,,0.1170783,1.625041,1.143833,,,0.1243145,1.723358,1.111004,,44.7500116682395,26.8129877181818,18.6323747542555
0.655, 21.22,21.22,,,0.1170969,1.630102,1.15185,,,0.1245554,1.730373,1.11802,,44.7500116682395,26.640781578525,18.8156679981741
0.666, 21.45,21.45,,,0.1170194,1.636466,1.159938,,,0.1246187,1.737712,1.125359,,44.7500116682395,26.4348616260631,19.0300539698766
0.677, 21.76,21.76,,,0.1166625,1.642135,1.167732,,,0.1244956,1.744705,1.132352,,44.7500116682395,26.2726890340178,19.2135811477677
0.688, 21.99,21.99,,,0.1167732,1.648318,1.175607,,,0.1246916,1.751878,1.139525,,44.7500116682395,26.0968287432566,19.387762919587
0.699, 22.41,22.41,,,0.1170159,1.653637,1.183752,,,0.1250712,1.759125,1.146772,,44.7500116682395,25.9878342950619,19.4928146411931
