経過時間(s),めり込み量(mm),Y軸めり込み量(mm),,デバイス先端,X座標,Y座標,Z座標,,仮想物体との接触位置,X座標,Y座標,Z座標,,接触点の法線と床の法線とのなす角,接触点の法線とデバイスの方向ベクトルのなす角,床の法線とデバイスの方向ベクトルのなす角
0.001, 0.47,-0.47,,,0.1935831,1.579098,0.9297676,,,0.1935535,1.577042,0.9309424,,45.7999961295596,16.3166333315499,29.506665695262
0.009, 0.24,0.24,,,0.1936769,1.575848,0.9313769,,,0.1936917,1.576883,0.9307894,,45.7999961295596,16.4833223860582,29.339442178466
0.02, 0.96,0.96,,,0.1939987,1.572233,0.9326966,,,0.194055,1.576412,0.930335,,45.7999961295596,16.5919036078197,29.2284003811245
0.031, 1.6,1.6,,,0.1944197,1.569527,0.9343618,,,0.1945062,1.576506,0.9304252,,45.7999961295596,16.6344983738458,29.1826346998644
0.042, 2.14,2.14,,,0.1945119,1.566774,0.9352739,,,0.1946242,1.576094,0.9300288,,45.7999961295596,16.6920700367578,29.1241409614402
0.053, 2.58,2.58,,,0.1944597,1.564574,0.9360843,,,0.1945968,1.575828,0.9297716,,45.7999961295596,16.769654153381,29.0469051844549
0.064, 3.1,3.1,,,0.1941216,1.561605,0.93664,,,0.1942982,1.575124,0.929093,,45.7999961295596,16.8887077623959,28.9303104434728
0.075, 3.72,3.72,,,0.1941889,1.558553,0.9378282,,,0.1944024,1.574818,0.928798,,45.7999961295596,17.023117343785,28.7960733243554
0.087, 4.35,4.35,,,0.1941648,1.555817,0.9393314,,,0.1944185,1.574826,0.9288065,,45.7999961295596,17.0914243562262,28.7284100572256
0.098, 4.88,4.88,,,0.1941273,1.553152,0.9402981,,,0.1944172,1.574508,0.9284997,,45.7999961295596,17.1444010095019,28.6761010549227
0.109, 5.41,5.41,,,0.1933043,1.550884,0.941591,,,0.1936424,1.574571,0.9285601,,45.7999961295596,17.2481088914262,28.5745549278106
0.12, 5.84,5.84,,,0.193109,1.548368,0.9420052,,,0.1934898,1.573989,0.9279987,,45.7999961295596,17.4004682094546,28.4240875721296
0.131, 6.37,6.37,,,0.1924237,1.545689,0.9428786,,,0.1928425,1.573671,0.9276927,,45.7999961295596,17.5770098115665,28.2478567436163
0.142, 6.65,6.65,,,0.192094,1.544589,0.9436368,,,0.1925096,1.57382,0.9278358,,45.7999961295596,17.6703153156743,28.1521299375152
0.153, 7.01,7.01,,,0.1910114,1.543159,0.9446651,,,0.1914372,1.574007,0.9280167,,45.7999961295596,17.7076405909024,28.1135035112863
0.164, 7,7,,,0.1901101,1.54344,0.9448928,,,0.1905624,1.574238,0.9282389,,45.7999961295596,17.6629557870484,28.1610023530001
0.175, 7.15,7.15,,,0.1879531,1.543387,0.945783,,,0.1885015,1.574833,0.928813,,45.7999961295596,17.7179456385259,28.115808700067
0.186, 7.27,7.27,,,0.1852579,1.542795,0.9459796,,,0.1859447,1.574773,0.9287548,,45.7999961295596,17.773273584358,28.0778840757559
0.197, 7.22,7.22,,,0.182765,1.544044,0.9469192,,,0.1835598,1.575803,0.9297481,,45.7999961295596,17.6948595997737,28.1746388252986
0.209, 7.12,7.12,,,0.1804229,1.545287,0.9474646,,,0.1812523,1.576559,0.9304769,,45.7999961295596,17.5876819818476,28.2903866228472
0.22, 7.12,7.12,,,0.179021,1.546161,0.9483116,,,0.1798635,1.577412,0.9312989,,45.7999961295596,17.5373622720851,28.3432966817804
0.231, 7.19,7.19,,,0.1766027,1.546863,0.9494541,,,0.1774997,1.57842,0.9322708,,45.7999961295596,17.5380879796643,28.3515595028988
0.242, 7.15,7.15,,,0.1739163,1.547459,0.9497867,,,0.1748764,1.578868,0.9327021,,45.7999961295596,17.5712519622564,28.3324025303573
0.253, 7.12,7.12,,,0.1711863,1.548809,0.95087,,,0.1722167,1.580073,0.9338644,,45.7999961295596,17.5828427929553,28.337627624927
0.264, 7.12,7.12,,,0.1697239,1.549659,0.9516697,,,0.1707763,1.580892,0.9346534,,45.7999961295596,17.5470047913776,28.3789553908974
0.275, 7.21,7.21,,,0.1678713,1.550555,0.9531986,,,0.1689332,1.582197,0.9359112,,45.7999961295596,17.4789573261176,28.4459919881883
0.286, 7.22,7.22,,,0.1653572,1.551624,0.9542894,,,0.1664104,1.583252,0.9369287,,45.7999961295596,17.3656854720742,28.5574077383764
0.298, 7.25,7.25,,,0.1638504,1.55353,0.9563608,,,0.1648657,1.585231,0.9388368,,45.7999961295596,17.1896305209271,28.7243665853495
0.308, 7.18,7.18,,,0.1617119,1.555282,0.9576432,,,0.1626782,1.58665,0.9402046,,45.7999961295596,17.0470025146479,28.8585319874825
0.32, 7.28,7.28,,,0.1604913,1.556138,0.9591304,,,0.1614632,1.587913,0.941422,,45.7999961295596,16.9861335780059,28.9179478014191
0.331, 7.28,7.28,,,0.1591344,1.557149,0.9600816,,,0.1601162,1.588931,0.9424028,,45.7999961295596,17.0333216461211,28.8728139126396
0.342, 7.36,7.36,,,0.1584238,1.556815,0.9602976,,,0.15943,1.588988,0.9424583,,45.7999961295596,17.1125603760247,28.7961587017177
0.353, 7.44,7.44,,,0.1569461,1.557293,0.9612952,,,0.1579854,1.589837,0.9432766,,45.7999961295596,17.1502391135325,28.7631108323382
0.364, 7.51,7.51,,,0.1537719,1.558393,0.9627652,,,0.1548846,1.59123,0.9446199,,45.7999961295596,17.2073702292553,28.7201660191268
0.375, 7.66,7.66,,,0.1511632,1.559604,0.9649507,,,0.1523717,1.593128,0.9464493,,45.7999961295596,17.2482591555837,28.6960213010827
0.386, 7.72,7.72,,,0.1484419,1.561085,0.9667823,,,0.1497441,1.594865,0.9481233,,45.7999961295596,17.2401722118315,28.7248003023497
0.397, 7.71,7.71,,,0.1466909,1.562698,0.96826,,,0.148042,1.596396,0.9495994,,45.7999961295596,17.1884284076667,28.7900047014467
0.409, 7.69,7.69,,,0.1443342,1.564121,0.9695315,,,0.1457265,1.597738,0.9508935,,45.7999961295596,17.1673367840966,28.8230628161097
0.42, 7.69,7.69,,,0.1436429,1.564752,0.9701388,,,0.1450399,1.598366,0.951499,,45.7999961295596,17.1635426141182,28.8281820427502
0.431, 7.61,7.61,,,0.1417862,1.565962,0.9707294,,,0.1431693,1.599198,0.9523011,,45.7999961295596,17.1663771425449,28.825859778497
0.442, 7.7,7.7,,,0.1404275,1.566692,0.9720348,,,0.1418394,1.600314,0.9533768,,45.7999961295596,17.14854864176,28.8472211945318
0.453, 7.59,7.59,,,0.1374037,1.5688,0.9733679,,,0.1388506,1.601945,0.9549485,,45.7999961295596,17.1234084236721,28.8881203661437
0.464, 7.38,7.38,,,0.1340815,1.571423,0.9744961,,,0.1355695,1.603645,0.9565876,,45.7999961295596,17.1371473488052,28.8994243289055
0.475, 7.24,7.24,,,0.1298936,1.573372,0.9754679,,,0.131451,1.605004,0.9578975,,45.7999961295596,17.171779822028,28.8969722910617
0.486, 7.03,7.03,,,0.1265298,1.575569,0.9761654,,,0.1281133,1.606243,0.9590923,,45.7999961295596,17.1400109055351,28.9554045577851
0.498, 6.83,6.83,,,0.1240389,1.578104,0.9773149,,,0.1256328,1.607873,0.9606634,,45.7999961295596,17.0346159669328,29.0832417898283
0.509, 6.46,6.46,,,0.1211247,1.581402,0.9780769,,,0.1226683,1.609516,0.9622471,,45.7999961295596,16.8852277811107,29.2492666084583
0.52, 6.09,6.09,,,0.1188237,1.584409,0.978524,,,0.1203129,1.610878,0.96356,,45.7999961295596,16.7974700980018,29.3539426696704
0.531, 5.88,5.88,,,0.1156777,1.586472,0.9791412,,,0.1171622,1.612033,0.9646739,,45.7999961295596,16.7848923049953,29.3894323316102
0.542, 5.58,5.58,,,0.1124919,1.588924,0.9795053,,,0.1139455,1.613185,0.9657838,,45.7999961295596,16.8178428441818,29.3803481802669
0.553, 5.57,5.57,,,0.1103341,1.590107,0.9805726,,,0.1118005,1.614324,0.9668818,,45.7999961295596,16.8330161090007,29.3736033686492
0.564, 5.51,5.51,,,0.1094797,1.591507,0.9815017,,,0.1109016,1.615428,0.9679466,,45.7999961295596,16.7677843891477,29.4242355595575
0.575, 5.26,5.26,,,0.1078138,1.595196,0.9834595,,,0.109159,1.618024,0.9704486,,45.7999961295596,16.6217276280006,29.5641041694889
0.587, 5.1,5.1,,,0.1065735,1.598414,0.9854972,,,0.107879,1.620495,0.972831,,45.7999961295596,16.4675361117783,29.7212941386733
0.598, 4.82,4.82,,,0.1049782,1.601535,0.9866971,,,0.1062387,1.622402,0.9746698,,45.7999961295596,16.3610637108644,29.8451801063916
0.609, 4.62,4.62,,,0.1029027,1.604624,0.9883027,,,0.1041639,1.624574,0.9767637,,45.7999961295596,16.3015403214515,29.9433709031673
0.62, 4.32,4.32,,,0.1014809,1.608148,0.9897356,,,0.1027113,1.626811,0.9789195,,45.7999961295596,16.2778839619194,30.0058261511999
0.631, 4.1,4.1,,,0.09920356,1.61081,0.9908159,,,0.1004331,1.628515,0.9805623,,45.7999961295596,16.3301810113916,30.0058534719558
0.642, 3.89,3.89,,,0.09719677,1.613354,0.9918653,,,0.09840569,1.630155,0.9821438,,45.7999961295596,16.3778113342433,29.9971176602505
0.653, 3.7,3.7,,,0.09615065,1.616139,0.9932891,,,0.09732349,1.632112,0.9840301,,45.7999961295596,16.3494097009174,30.0492456625454
0.665, 3.47,3.47,,,0.09609542,1.619274,0.9948206,,,0.09717639,1.634246,0.9860873,,45.7999961295596,16.1836205238072,30.1962654803387
0.676, 3.35,3.35,,,0.09617548,1.622591,0.9971931,,,0.09719163,1.636987,0.9887294,,45.7999961295596,15.9718761276927,30.3838941867123
0.686, 3.12,3.12,,,0.0960632,1.625923,0.9988933,,,0.09699177,1.639305,0.9909635,,45.7999961295596,15.7654097601124,30.5731177422127
0.698, 2.95,2.95,,,0.09478807,1.628931,1.000674,,,0.09566894,1.641573,0.99315,,45.7999961295596,15.6596562365886,30.6840024452077
0.709, 2.74,2.74,,,0.09336618,1.631567,1.001812,,,0.09421418,1.643309,0.9948235,,45.7999961295596,15.6879093133042,30.6957196344028
0.72, 2.51,2.51,,,0.09159386,1.634031,1.002645,,,0.09241022,1.644793,0.996254,,45.7999961295596,15.7826081759639,30.6600216516991
0.731, 2.35,2.35,,,0.08952142,1.635569,1.003042,,,0.09033114,1.645654,0.9970843,,45.7999961295596,15.9636457499718,30.553965892313
0.742, 2.3,2.3,,,0.08788731,1.637347,1.004446,,,0.08871244,1.647242,0.9986151,,45.7999961295596,16.0612662259677,30.511379664023
0.753, 2.2,2.2,,,0.0863125,1.639487,1.005854,,,0.08711512,1.648955,1.000267,,45.7999961295596,16.0442095365375,30.5541537225099
0.764, 2.2,2.2,,,0.08538327,1.640861,1.007115,,,0.08619079,1.650285,1.001549,,45.7999961295596,16.0374374041639,30.5780388933728
0.776, 2,2,,,0.08375067,1.642747,1.00763,,,0.0844957,1.651334,1.00256,,45.7999961295596,16.0535242067589,30.5823419124301
0.787, 2.01,2.01,,,0.08322351,1.64343,1.008346,,,0.08396715,1.65205,1.00325,,45.7999961295596,16.018946375048,30.6078936494041
0.798, 1.93,1.93,,,0.08214615,1.645003,1.00937,,,0.08285758,1.653296,1.004451,,45.7999961295596,15.9319639183883,30.6866457283429
0.809, 1.69,1.69,,,0.08118528,1.648701,1.011345,,,0.08180229,1.655956,1.007016,,45.7999961295596,15.7789540248596,30.8270197722587
0.82, 1.61,1.61,,,0.07939307,1.650166,1.012217,,,0.07997859,1.65707,1.008089,,45.7999961295596,15.719970220376,30.88228624639
0.831, 1.52,1.52,,,0.07803161,1.65128,1.012668,,,0.07858393,1.657786,1.00878,,45.7999961295596,15.7362841267546,30.8673725287522
0.842, 1.42,1.42,,,0.07654939,1.652377,1.013056,,,0.07706881,1.658457,1.009427,,45.7999961295596,15.7707373075167,30.8425413767157
0.854, 1.41,1.41,,,0.07504225,1.653479,1.014051,,,0.07556175,1.659519,1.01045,,45.7999961295596,15.8054944316884,30.8186083945299
0.864, 1.22,1.22,,,0.07296104,1.655455,1.014717,,,0.07341479,1.660698,1.011587,,45.7999961295596,15.7856954213828,30.8486168298133
0.875, 1.04,1.04,,,0.07151041,1.657578,1.015538,,,0.07189859,1.662033,1.012874,,45.7999961295596,15.7408296175208,30.9053278889138
0.886, 0.85,0.85,,,0.06866872,1.660604,1.017204,,,0.06899031,1.664252,1.015013,,45.7999961295596,15.6469998964088,31.0201501958557
0.898, 0.64,0.64,,,0.06605867,1.662963,1.018059,,,0.06630556,1.6657,1.016409,,45.7999961295596,15.5918495354902,31.1162202189531
0.909, 0.44,0.44,,,0.06370479,1.664848,1.018528,,,0.06387674,1.666725,1.017397,,45.7999961295596,15.6181423479685,31.1177604265681
0.92, 0.13,0.13,,,0.0617266,1.666784,1.018349,,,0.06178004,1.667356,1.018005,,45.7999961295596,15.6445427359233,31.1298430308736
0.931, 0.16,-0.16,,,0.05868553,1.66933,1.018837,,,0.05862077,1.668647,1.019249,,45.7999961295596,15.6503927927846,31.1507980506641
0.942, 0.34,-0.34,,,0.05669537,1.671568,1.019799,,,0.05655798,1.670123,1.020673,,45.7999961295596,15.5710874685384,31.23700186578
0.953, 0.69,-0.69,,,0.05488218,1.674516,1.020315,,,0.0546051,1.671595,1.022091,,45.7999961295596,15.4548410671943,31.3493072480827
0.964, 0.87,-0.87,,,0.0522137,1.676677,1.02117,,,0.0518615,1.672978,1.023425,,45.7999961295596,15.3924472908625,31.4207202889625
0.975, 0.97,-0.97,,,0.05013044,1.678396,1.022183,,,0.0497383,1.674286,1.024686,,45.7999961295596,15.4088175463001,31.408624024279
0.987, 1.06,-1.06,,,0.04748808,1.680136,1.023235,,,0.04705669,1.675628,1.025979,,45.7999961295596,15.4274810376878,31.39535979728
0.999, 1.06,-1.06,,,0.0448317,1.681453,1.024471,,,0.04439725,1.676925,1.02723,,45.7999961295596,15.4064133197792,31.4222126852546
1.009, 1.14,-1.14,,,0.0430567,1.683506,1.025936,,,0.04259416,1.678657,1.028899,,45.7999961295596,15.3335761844971,31.4838517257042
1.02, 1.2,-1.2,,,0.04088198,1.685661,1.027582,,,0.04039966,1.680545,1.030719,,45.7999961295596,15.2277987553119,31.5682933520632
1.031, 1.36,-1.36,,,0.03992614,1.688477,1.029277,,,0.03938886,1.682722,1.032819,,45.7999961295596,15.1223730808592,31.6566213559519
1.042, 1.44,-1.44,,,0.03797575,1.690657,1.0308,,,0.03740375,1.684543,1.034574,,45.7999961295596,15.0530859362994,31.7309201516757
1.053, 1.54,-1.54,,,0.03582601,1.693361,1.032771,,,0.0352112,1.68685,1.036797,,45.7999961295596,15.0232345953625,31.7791856821025
1.064, 1.73,-1.73,,,0.03414844,1.696443,1.034452,,,0.03344751,1.689129,1.038994,,45.7999961295596,14.9375293840422,31.8962653665022
1.075, 1.93,-1.93,,,0.03171836,1.699422,1.035975,,,0.03092142,1.691267,1.041056,,45.7999961295596,14.8886832875521,31.9866970685967
1.087, 2.06,-2.06,,,0.02901847,1.702036,1.037642,,,0.02814846,1.693344,1.043057,,45.7999961295596,14.9212240153998,32.0057157298114
1.098, 2.17,-2.17,,,0.02652484,1.704638,1.039375,,,0.02559038,1.695459,1.045096,,45.7999961295596,14.9353693367773,32.029682862942
1.109, 2.27,-2.27,,,0.0242606,1.70733,1.041285,,,0.02327169,1.697725,1.047281,,45.7999961295596,14.9172590906969,32.0743249781149
1.121, 2.28,-2.28,,,0.02155892,1.709407,1.043255,,,0.02056245,1.699788,1.04927,,45.7999961295596,14.8849079005934,32.1221294707856
1.131, 2.34,-2.34,,,0.01990917,1.71204,1.045346,,,0.01888998,1.702148,1.051544,,45.7999961295596,14.8274455207051,32.1676629256204
1.142, 2.41,-2.41,,,0.01823626,1.71476,1.047511,,,0.01719485,1.704591,1.0539,,45.7999961295596,14.7492159512233,32.2336971926785
1.153, 2.39,-2.39,,,0.01589877,1.717778,1.050557,,,0.01487225,1.707715,1.056911,,45.7999961295596,14.6185595586787,32.3579280849402
1.165, 2.57,-2.57,,,0.01378501,1.721205,1.052645,,,0.01267438,1.710392,1.059492,,45.7999961295596,14.5615377259796,32.4322781070814
1.175, 2.67,-2.67,,,0.01085318,1.723948,1.054578,,,0.009682832,1.712698,1.061715,,45.7999961295596,14.5389724891372,32.4858438641566
1.186, 2.97,-2.97,,,0.007789563,1.727219,1.055768,,,0.006470708,1.714744,1.063688,,45.7999961295596,14.5450257441206,32.5194518090325
1.198, 3.07,-3.07,,,0.004826412,1.72996,1.057685,,,0.003441125,1.71704,1.065901,,45.7999961295596,14.5312441303063,32.5691106980112
1.209, 3.17,-3.17,,,0.002657268,1.732588,1.059563,,,0.001215525,1.719263,1.068044,,45.7999961295596,14.5250764696575,32.5991054729166
1.22, 3.17,-3.17,,,-5.709007E-05,1.735314,1.062171,,,-0.001508415,1.721987,1.07067,,45.7999961295596,14.488620335977,32.6536855130553
1.231, 3.26,-3.26,,,-0.002587195,1.737835,1.064045,,,-0.004076697,1.724165,1.072769,,45.7999961295596,14.4692516275771,32.674906910216
1.242, 3.34,-3.34,,,-0.004409952,1.739751,1.065351,,,-0.005934164,1.725748,1.074295,,45.7999961295596,14.4465190511046,32.695517005463
1.253, 3.42,-3.42,,,-0.007673018,1.743102,1.067997,,,-0.009243138,1.728747,1.077186,,45.7999961295596,14.401851322723,32.7544615363599
1.264, 3.62,-3.62,,,-0.01128802,1.746692,1.070124,,,-0.01297252,1.731525,1.079865,,45.7999961295596,14.3497352732588,32.8496607103624
1.276, 3.75,-3.75,,,-0.01521807,1.749715,1.072163,,,-0.01700017,1.734024,1.082274,,45.7999961295596,14.3141815782973,32.9494907524933
1.286, 3.96,-3.96,,,-0.01894199,1.752595,1.073534,,,-0.02085351,1.736046,1.084222,,45.7999961295596,14.2898780583594,33.0241515482331
1.298, 4.16,-4.16,,,-0.02249208,1.755505,1.075002,,,-0.02452002,1.738147,1.086248,,45.7999961295596,14.237359881519,33.1128586276101
1.309, 4.34,-4.34,,,-0.02584676,1.758445,1.076576,,,-0.0279737,1.740334,1.088356,,45.7999961295596,14.1521276607855,33.2170429152157
1.32, 4.43,-4.43,,,-0.02966031,1.761396,1.07883,,,-0.03183239,1.742949,1.090877,,45.7999961295596,14.0586035906303,33.3221048821052
1.331, 4.6,-4.6,,,-0.03282969,1.764135,1.080285,,,-0.03508514,1.744976,1.092831,,45.7999961295596,13.990100210256,33.3925958474728
1.342, 4.77,-4.77,,,-0.036523,1.766935,1.081833,,,-0.03885464,1.747092,1.094871,,45.7999961295596,13.9040372677878,33.4759822096344
1.353, 4.86,-4.86,,,-0.03977817,1.769517,1.083679,,,-0.04216082,1.749325,1.097024,,45.7999961295596,13.7707990638088,33.6275953295168
1.364, 4.96,-4.96,,,-0.04373717,1.77199,1.085382,,,-0.04617597,1.75142,1.099044,,45.7999961295596,13.6568100399225,33.7615626561694
1.376, 4.96,-4.96,,,-0.04696172,1.774289,1.087581,,,-0.04939929,1.753744,1.101283,,45.7999961295596,13.5567486251399,33.8679155287762
1.387, 4.96,-4.96,,,-0.05018467,1.77611,1.089334,,,-0.05261657,1.75557,1.103044,,45.7999961295596,13.5305872937994,33.8885939259129
1.398, 4.86,-4.86,,,-0.05318965,1.777245,1.091103,,,-0.05555961,1.757121,1.104539,,45.7999961295596,13.5130012647233,33.8898916618191
1.409, 4.84,-4.84,,,-0.05617496,1.779691,1.093576,,,-0.05852339,1.759644,1.106972,,45.7999961295596,13.479975593458,33.9076672286394
1.42, 4.75,-4.75,,,-0.05869206,1.781213,1.095657,,,-0.06099185,1.761565,1.108823,,45.7999961295596,13.4093838828031,33.9786704581805
1.431, 4.75,-4.75,,,-0.06189016,1.784195,1.098543,,,-0.06419163,1.764587,1.111737,,45.7999961295596,13.3123029917366,34.0887970101986
1.442, 4.66,-4.66,,,-0.0645026,1.786489,1.101345,,,-0.06676544,1.76727,1.114323,,45.7999961295596,13.2308999457,34.1837502973978
経過時間(s),めり込み量(mm),Y軸めり込み量(mm),,デバイス先端,X座標,Y座標,Z座標,,仮想物体との接触位置,X座標,Y座標,Z座標,,接触点の法線と床の法線とのなす角,接触点の法線とデバイスの方向ベクトルのなす角,床の法線とデバイスの方向ベクトルのなす角
0.001, 0.58,-0.58,,,0.2156263,1.578938,0.9288032,,,0.2158302,1.576586,0.9305026,,45.7999961295596,10.9550621945625,35.7961051985707
0.007, 0.24,-0.24,,,0.215936,1.576885,0.9291825,,,0.2160177,1.575929,0.9298691,,45.7999961295596,11.0991834509074,35.6187934926513
0.015, 0.12,0.12,,,0.2158987,1.575139,0.929902,,,0.2158585,1.575612,0.9295638,,45.7999961295596,11.2001669412023,35.5036023555045
0.027, 0.55,0.55,,,0.2157854,1.573119,0.93092,,,0.2155963,1.57536,0.9293206,,45.7999961295596,11.235066645569,35.4565969949445
0.038, 0.55,0.55,,,0.2150489,1.573561,0.931309,,,0.2148625,1.575777,0.9297228,,45.7999961295596,11.1521191230493,35.5365853380887
0.049, 0.63,0.63,,,0.2150589,1.573241,0.9315836,,,0.2148432,1.575802,0.9297466,,45.7999961295596,11.0996624179097,35.5934876424806
0.06, 0.99,0.99,,,0.2145561,1.571965,0.932775,,,0.2142181,1.575967,0.9299055,,45.7999961295596,11.1155280931365,35.5817567929075
0.071, 1.61,1.61,,,0.2142797,1.569041,0.9342244,,,0.2137213,1.575591,0.9295435,,45.7999961295596,11.2146281588201,35.4960584117762
0.082, 2.6,2.6,,,0.2142213,1.564338,0.9364107,,,0.2133042,1.574923,0.9288993,,45.7999961295596,11.4191317008423,35.3134396490194
0.093, 3.34,3.34,,,0.2137552,1.560619,0.9377964,,,0.2125496,1.574223,0.9282247,,45.7999961295596,11.6711767732594,35.0948052997713
0.104, 3.9,3.9,,,0.2141352,1.557837,0.9389232,,,0.2126824,1.573768,0.9277859,,45.7999961295596,11.8778130417905,34.937038179618
0.115, 4.36,4.36,,,0.2142719,1.555442,0.9397545,,,0.2126083,1.573288,0.9273235,,45.7999961295596,12.0050833681483,34.8502913644782
0.126, 4.72,4.72,,,0.2137633,1.553857,0.9406446,,,0.2119564,1.573179,0.9272181,,45.7999961295596,12.0715462295649,34.788034191926
0.137, 4.87,4.87,,,0.2123047,1.552626,0.9404604,,,0.2104851,1.572553,0.9266149,,45.7999961295596,12.0370580440843,34.7745582290686
0.148, 4.49,4.49,,,0.2115517,1.554394,0.93961,,,0.2099129,1.572754,0.9268083,,45.7999961295596,11.9136980009175,34.8573401195055
0.159, 4.47,4.47,,,0.2103508,1.55493,0.9400009,,,0.2087531,1.573189,0.9272283,,45.7999961295596,11.8036329206002,34.9332576700176
0.17, 4.54,4.54,,,0.209231,1.554696,0.9402536,,,0.207639,1.573227,0.9272646,,45.7999961295596,11.725933544538,34.979959087168
0.181, 4.52,4.52,,,0.2081926,1.554637,0.9401059,,,0.2066303,1.573121,0.9271623,,45.7999961295596,11.728251539923,34.9485641235217
0.192, 4.61,4.61,,,0.2068299,1.5543,0.9403617,,,0.205247,1.573154,0.9271941,,45.7999961295596,11.7883145142654,34.8749517617903
0.204, 4.61,4.61,,,0.2062266,1.554029,0.9401033,,,0.2046448,1.572902,0.926951,,45.7999961295596,11.8411383420627,34.8176737970045
