経過時間(s),めり込み量(mm),Y軸めり込み量(mm),,デバイス先端,X座標,Y座標,Z座標,,仮想物体との接触位置,X座標,Y座標,Z座標,,接触点の法線と床の法線とのなす角,接触点の法線とデバイスの方向ベクトルのなす角,床の法線とデバイスの方向ベクトルのなす角
0.001, 0.38,-0.38,,,-0.1647327,1.54946,1.042578,,,-0.164673,1.547626,1.04303,,44.8235181620417,34.7565948320513,13.7098652403714
0.011, 1.27,1.27,,,-0.1627935,1.542095,1.043789,,,-0.1630246,1.548275,1.0423,,44.8235181620417,34.7000374522029,13.4482348514946
0.022, 2.63,2.63,,,-0.1615445,1.535538,1.044464,,,-0.162065,1.548349,1.041445,,44.8235181620417,34.7051874146938,13.206153317252
0.033, 3.88,3.88,,,-0.1610999,1.529275,1.045401,,,-0.1618952,1.548169,1.04102,,44.8235181620417,34.7570797754689,13.0132474361178
0.044, 5.04,5.04,,,-0.1610048,1.523146,1.046128,,,-0.1620872,1.547674,1.040512,,44.8235181620417,34.753644190412,12.8799315387391
0.056, 6.32,6.32,,,-0.159918,1.517937,1.04832,,,-0.1613634,1.548738,1.041293,,44.8235181620417,34.6513484500594,12.8677763636757
0.067, 7.72,7.72,,,-0.1574114,1.513441,1.051085,,,-0.1593505,1.551011,1.042494,,44.8235181620417,34.4233089305859,12.9490743955567
0.077, 8.97,8.97,,,-0.1548489,1.509012,1.052781,,,-0.1573148,1.552639,1.042761,,44.8235181620417,34.1698611081071,13.0648640280129
0.089, 9.99,9.99,,,-0.1528066,1.505753,1.054737,,,-0.1557266,1.554336,1.043574,,44.8235181620417,34.0050759687769,13.1191998888956
0.1, 10.91,10.91,,,-0.1513669,1.502461,1.056365,,,-0.1546632,1.555539,1.044211,,44.8235181620417,33.9399808527036,13.1063745015385
0.111, 11.73,11.73,,,-0.1499973,1.498887,1.056716,,,-0.1536512,1.555957,1.04379,,44.8235181620417,33.9324471542587,13.0046149310208
0.122, 12.31,12.31,,,-0.1494018,1.495609,1.056275,,,-0.1533376,1.555592,1.042961,,44.8235181620417,34.0060356103286,12.7923727848843
0.133, 12.85,12.85,,,-0.1483936,1.49309,1.056075,,,-0.1525718,1.555744,1.04241,,44.8235181620417,34.0822741797228,12.6087995032176
0.144, 13.05,13.05,,,-0.1475837,1.492323,1.055792,,,-0.1518591,1.555935,1.041967,,44.8235181620417,34.0840500288575,12.5770801055947
0.155, 13.39,13.39,,,-0.1465545,1.49205,1.057349,,,-0.1510037,1.557279,1.043012,,44.8235181620417,33.9599728158479,12.7215855600698
0.166, 13.4,13.4,,,-0.1453287,1.494074,1.059424,,,-0.1498849,1.559277,1.044719,,44.8235181620417,33.7017541063665,13.0462534705898
0.177, 13.44,13.44,,,-0.1439786,1.496352,1.062082,,,-0.1486656,1.561666,1.046879,,44.8235181620417,33.3885626208801,13.4505989506553
0.189, 13.58,13.58,,,-0.1422258,1.498362,1.064636,,,-0.1470504,1.564265,1.048939,,44.8235181620417,33.1542017615057,13.7531703460515
0.2, 13.34,13.34,,,-0.1411535,1.501299,1.065888,,,-0.1459699,1.565962,1.050258,,44.8235181620417,32.9872070560406,13.9554916426946
0.211, 13.29,13.29,,,-0.139563,1.504074,1.067967,,,-0.1444234,1.568463,1.052248,,44.8235181620417,32.8679690319232,14.0952364554507
0.222, 13.24,13.24,,,-0.1379929,1.506766,1.069854,,,-0.1428769,1.570868,1.054103,,44.8235181620417,32.7872396132747,14.1883985255899
0.233, 13.15,13.15,,,-0.1358603,1.510048,1.071678,,,-0.140736,1.573695,1.05596,,44.8235181620417,32.7309930070249,14.2580348635613
0.244, 13.03,13.03,,,-0.1345688,1.513442,1.074265,,,-0.1393936,1.576497,1.058581,,44.8235181620417,32.680196891581,14.3481916505493
0.255, 12.87,12.87,,,-0.1328987,1.517822,1.077564,,,-0.1376227,1.580055,1.061842,,44.8235181620417,32.5893485479587,14.5377754985184
0.266, 12.79,12.79,,,-0.1311468,1.522171,1.081421,,,-0.1358166,1.583971,1.065573,,44.8235181620417,32.4898702605603,14.7279535729288
0.277, 12.74,12.74,,,-0.1293144,1.525574,1.083985,,,-0.1339539,1.587072,1.068097,,44.8235181620417,32.4379471639348,14.8243087564161
0.288, 12.7,12.7,,,-0.1268895,1.530024,1.087611,,,-0.131587,1.591299,1.071707,,44.8235181620417,32.3469656316274,14.904372231639
0.3, 12.89,12.89,,,-0.1229137,1.534109,1.091238,,,-0.1277962,1.596264,1.074938,,44.8235181620417,32.1815657752891,15.0708273521748
0.311, 12.95,12.95,,,-0.1198547,1.539136,1.096038,,,-0.1248184,1.601534,1.079412,,44.8235181620417,32.0123512584054,15.3002482773694
0.322, 12.83,12.83,,,-0.1173742,1.54472,1.10052,,,-0.1222761,1.60646,1.083838,,44.8235181620417,31.9091710085799,15.4894052385273
0.333, 12.74,12.74,,,-0.1152752,1.549538,1.104555,,,-0.120077,1.610838,1.08783,,44.8235181620417,31.8811057620613,15.6073182059826
0.344, 12.9,12.9,,,-0.1125122,1.553514,1.108748,,,-0.1173084,1.615563,1.091743,,44.8235181620417,31.8930483474927,15.6541647646488
0.355, 12.9,12.9,,,-0.11016,1.557789,1.112388,,,-0.1149242,1.619839,1.095406,,44.8235181620417,31.9274246886288,15.6275014144183
0.367, 13.01,13.01,,,-0.1069811,1.562183,1.116333,,,-0.1117727,1.624748,1.099197,,44.8235181620417,31.930228481205,15.6353339336311
0.378, 13.37,13.37,,,-0.1024685,1.566922,1.121804,,,-0.1074961,1.631188,1.104027,,44.8235181620417,31.7771297952196,15.7977063087041
0.388, 13.54,13.54,,,-0.09893435,1.571741,1.126692,,,-0.1040744,1.636776,1.108509,,44.8235181620417,31.6556924502506,15.9603433536
0.4, 13.77,13.77,,,-0.09636606,1.575871,1.131917,,,-0.101579,1.641929,1.113302,,44.8235181620417,31.5980798062048,16.0716429905755
0.411, 13.67,13.67,,,-0.09398442,1.581149,1.136137,,,-0.09903006,1.646743,1.11756,,44.8235181620417,31.6495930914915,16.1144682754797
0.422, 13.71,13.71,,,-0.09191535,1.585891,1.141005,,,-0.09678872,1.651664,1.122277,,44.8235181620417,31.7366540953244,16.1529717583069
0.433, 13.77,13.77,,,-0.08890226,1.591361,1.146198,,,-0.09364957,1.657401,1.127251,,44.8235181620417,31.7777650027947,16.2343432147195
0.444, 13.97,13.97,,,-0.08575945,1.59627,1.151714,,,-0.09053846,1.663188,1.132325,,44.8235181620417,31.7211393210564,16.3728201736462
0.456, 14.15,14.15,,,-0.08179855,1.601737,1.157188,,,-0.08665207,1.669498,1.137362,,44.8235181620417,31.6329206001915,16.5212555481056
0.466, 14.41,14.41,,,-0.07813907,1.606488,1.162549,,,-0.08315054,1.6754,1.142208,,44.8235181620417,31.5118076891991,16.6669281111226
0.478, 14.74,14.74,,,-0.07435875,1.611216,1.168506,,,-0.07958739,1.681678,1.147523,,44.8235181620417,31.3722020415435,16.8190125140446
0.489, 14.92,14.92,,,-0.0704944,1.616566,1.173889,,,-0.07589176,1.687805,1.152491,,44.8235181620417,31.2308512806035,16.9694679168948
0.5, 15.32,15.32,,,-0.0661265,1.621428,1.180065,,,-0.07175189,1.694544,1.157882,,44.8235181620417,31.0956613501235,17.137403480892
0.511, 15.47,15.47,,,-0.06238785,1.626897,1.18543,,,-0.06803963,1.700681,1.162849,,44.8235181620417,31.0410334986619,17.2667467696052
0.522, 15.58,15.58,,,-0.0590197,1.632391,1.190725,,,-0.06460209,1.706632,1.167827,,44.8235181620417,31.0431235364897,17.3698604250882
0.533, 15.56,15.56,,,-0.0558463,1.638642,1.196219,,,-0.06128126,1.712734,1.173137,,44.8235181620417,31.0475290083818,17.5040565630717
0.544, 15.59,15.59,,,-0.05224015,1.644944,1.201739,,,-0.05750936,1.719118,1.178393,,44.8235181620417,31.0723977264578,17.639157701095
0.555, 15.7,15.7,,,-0.04879088,1.650579,1.207279,,,-0.05399676,1.725249,1.18355,,44.8235181620417,31.0562545748037,17.7779608015454
0.567, 15.84,15.84,,,-0.04510921,1.656008,1.212519,,,-0.05031231,1.731301,1.188425,,44.8235181620417,31.0284932716947,17.8836357778959
0.578, 16.14,16.14,,,-0.04098438,1.660756,1.217755,,,-0.04631629,1.737408,1.193066,,44.8235181620417,30.9550789854437,17.9931749336618
0.589, 16.52,16.52,,,-0.03674972,1.665365,1.223385,,,-0.0422664,1.743772,1.198016,,44.8235181620417,30.8804523406488,18.0765134845006
0.6, 16.79,16.79,,,-0.03273822,1.669931,1.228265,,,-0.03836998,1.749618,1.202387,,44.8235181620417,30.8360800179406,18.1397695721911
経過時間(s),めり込み量(mm),Y軸めり込み量(mm),,デバイス先端,X座標,Y座標,Z座標,,仮想物体との接触位置,X座標,Y座標,Z座標,,接触点の法線と床の法線とのなす角,接触点の法線とデバイスの方向ベクトルのなす角,床の法線とデバイスの方向ベクトルのなす角
0.001, 0.14,-0.14,,,-0.1663419,1.532676,1.022314,,,-0.1662973,1.531997,1.022551,,44.8235181620417,30.4762280964377,19.3426324459021
0.011, 1.16,1.16,,,-0.1665408,1.525263,1.023262,,,-0.1669157,1.530721,1.021366,,44.8235181620417,30.3831496961135,19.2578544327357
0.022, 2.25,2.25,,,-0.1670081,1.51862,1.023783,,,-0.1677634,1.529235,1.020111,,44.8235181620417,30.3012215792991,19.2071351569179
0.033, 3.27,3.27,,,-0.1665494,1.513284,1.02457,,,-0.1676922,1.528684,1.019261,,44.8235181620417,30.1835852344975,19.1828504199997
0.044, 4.46,4.46,,,-0.1652134,1.507957,1.026071,,,-0.1668503,1.528983,1.018843,,44.8235181620417,30.0358619072392,19.1724138912383
0.055, 5.36,5.36,,,-0.1640311,1.503952,1.027084,,,-0.1660752,1.529231,1.018418,,44.8235181620417,29.9166921850116,19.1599829472948
0.066, 6.12,6.12,,,-0.1625764,1.500724,1.027666,,,-0.1649698,1.529568,1.017789,,44.8235181620417,29.8262980489565,19.1668387494835
0.077, 6.84,6.84,,,-0.1619305,1.497504,1.028803,,,-0.1646636,1.529767,1.017764,,44.8235181620417,29.7519685173823,19.1734213441129
0.088, 7.32,7.32,,,-0.1610203,1.495599,1.029379,,,-0.1639685,1.530126,1.017577,,44.8235181620417,29.7281755540706,19.1659866834082
0.1, 7.76,7.76,,,-0.1610113,1.493625,1.03034,,,-0.1641349,1.530211,1.017864,,44.8235181620417,29.7483553474119,19.1252189929342
0.111, 8.03,8.03,,,-0.1607453,1.492077,1.030228,,,-0.163949,1.529997,1.017376,,44.8235181620417,29.8399311061605,19.0116534407646
0.121, 8.27,8.27,,,-0.160103,1.491135,1.030237,,,-0.1634003,1.530177,1.017081,,44.8235181620417,29.8889206366191,18.9142429930799
0.133, 8.29,8.29,,,-0.1599965,1.491231,1.030451,,,-0.163309,1.530359,1.017246,,44.8235181620417,29.8670640318833,18.9419411169408
0.144, 8.69,8.69,,,-0.1587102,1.49063,1.031922,,,-0.1622528,1.531675,1.018052,,44.8235181620417,29.7786643110104,18.98563725094
0.155, 9.6,9.6,,,-0.1557303,1.488886,1.034507,,,-0.1598377,1.534148,1.019135,,44.8235181620417,29.5302742434712,19.1274080685022
0.166, 10.1,10.1,,,-0.1537194,1.488433,1.036477,,,-0.1582172,1.536052,1.020206,,44.8235181620417,29.3077603468825,19.2782630374078
0.177, 10.47,10.47,,,-0.1520312,1.488492,1.038152,,,-0.1568187,1.537787,1.021262,,44.8235181620417,29.1608737177743,19.3614308335221
0.188, 10.9,10.9,,,-0.150171,1.488253,1.039745,,,-0.1552285,1.539588,1.022218,,44.8235181620417,29.1248137350547,19.3226814638916
0.199, 11.17,11.17,,,-0.1486944,1.488531,1.041046,,,-0.153905,1.541196,1.023169,,44.8235181620417,29.1530873023372,19.2328952146558
0.211, 11.21,11.21,,,-0.1486115,1.489056,1.041944,,,-0.153762,1.541923,1.024054,,44.8235181620417,29.249522740545,19.159077947255
0.222, 11.23,11.23,,,-0.1478385,1.490267,1.043003,,,-0.1529281,1.543258,1.025108,,44.8235181620417,29.3306448950598,19.105186048656
0.233, 11.34,11.34,,,-0.1470062,1.49166,1.045029,,,-0.1520792,1.545157,1.026945,,44.8235181620417,29.3787567462346,19.1051228694079
0.244, 11.48,11.48,,,-0.1451323,1.493925,1.04767,,,-0.1502669,1.548066,1.029247,,44.8235181620417,29.3236302909774,19.215263081804
0.255, 11.99,11.99,,,-0.1413168,1.497267,1.053216,,,-0.1467631,1.553712,1.033728,,44.8235181620417,29.1268218106148,19.4813501689903
0.266, 12.39,12.39,,,-0.13855,1.499413,1.057127,,,-0.1443007,1.557689,1.036889,,44.8235181620417,28.9759190303864,19.6114123350936
0.277, 12.68,12.68,,,-0.1352187,1.502085,1.060254,,,-0.1412254,1.561683,1.039462,,44.8235181620417,28.8402339112053,19.7179513303501
0.289, 13.09,13.09,,,-0.1320944,1.504926,1.064835,,,-0.1383817,1.566378,1.043257,,44.8235181620417,28.7157810378017,19.8492497606588
0.3, 13.34,13.34,,,-0.1287104,1.50825,1.06847,,,-0.1351495,1.570888,1.046404,,44.8235181620417,28.6662348469412,19.9117050086914
0.311, 13.48,13.48,,,-0.1261846,1.512286,1.072822,,,-0.1326662,1.575514,1.050463,,44.8235181620417,28.6479675065143,19.9727429925107
0.322, 13.65,13.65,,,-0.1237507,1.516222,1.077397,,,-0.1301876,1.580274,1.054717,,44.8235181620417,28.731179698857,19.9667938979092
0.333, 13.77,13.77,,,-0.1204054,1.520948,1.081764,,,-0.1268151,1.58554,1.058791,,44.8235181620417,28.7533504922859,20.0260252967433
0.344, 13.9,13.9,,,-0.1175884,1.525681,1.086774,,,-0.1239807,1.590868,1.063491,,44.8235181620417,28.7736361535563,20.0827226954658
0.355, 14.11,14.11,,,-0.1139413,1.531137,1.092651,,,-0.1203847,1.597231,1.068893,,44.8235181620417,28.7479341524248,20.1859712471811
0.366, 14.36,14.36,,,-0.1101142,1.536105,1.098177,,,-0.1166623,1.603336,1.073805,,44.8235181620417,28.6825624136977,20.3333359895179
0.378, 14.6,14.6,,,-0.1062175,1.541604,1.104187,,,-0.1128717,1.609872,1.079258,,44.8235181620417,28.6191987505308,20.4632000801409
0.388, 14.75,14.75,,,-0.1029899,1.546882,1.109796,,,-0.1097125,1.615819,1.084509,,44.8235181620417,28.5806525790224,20.542519064765
0.4, 14.99,14.99,,,-0.09953521,1.551986,1.115781,,,-0.1064037,1.622062,1.090029,,44.8235181620417,28.5420449358133,20.5820351231085
0.411, 15.13,15.13,,,-0.09558173,1.557971,1.121579,,,-0.1025211,1.628652,1.095466,,44.8235181620417,28.491154905271,20.6784398254659
0.422, 15.26,15.26,,,-0.09171822,1.564085,1.127563,,,-0.09871529,1.635297,1.101058,,44.8235181620417,28.4271440816982,20.8121834634295
0.433, 15.49,15.49,,,-0.08763662,1.57035,1.134463,,,-0.094768,1.642532,1.107343,,44.8235181620417,28.3250839828653,20.9888992353603
0.444, 15.71,15.71,,,-0.08359864,1.576723,1.141514,,,-0.09085427,1.64983,1.11375,,44.8235181620417,28.2170457611278,21.1894745649454
0.455, 15.85,15.85,,,-0.08023836,1.582973,1.148333,,,-0.08758052,1.656632,1.120096,,44.8235181620417,28.1211277097352,21.3663406010339
0.466, 16.04,16.04,,,-0.07639985,1.589127,1.154949,,,-0.08381952,1.663601,1.12619,,44.8235181620417,28.064725716686,21.5003762295763
0.477, 16.03,16.03,,,-0.07273114,1.595729,1.160639,,,-0.08011673,1.670151,1.13175,,44.8235181620417,28.0415764986858,21.5916856109547
0.489, 16.1,16.1,,,-0.06912253,1.602417,1.167059,,,-0.07648602,1.677071,1.137906,,44.8235181620417,28.0222982902899,21.6959621061115
0.499, 16.09,16.09,,,-0.06548655,1.609294,1.173171,,,-0.07279594,1.683858,1.143814,,44.8235181620417,27.9861273169993,21.8416397917703
0.511, 16.11,16.11,,,-0.06164952,1.616214,1.179393,,,-0.06895077,1.69079,1.149772,,44.8235181620417,27.9225997292968,22.0058307046592
0.522, 16.1,16.1,,,-0.0581831,1.623,1.185456,,,-0.06550492,1.697407,1.155684,,44.8235181620417,27.8411463106165,22.1509483148216
0.533, 16.08,16.08,,,-0.0546974,1.629931,1.19174,,,-0.0620493,1.704149,1.161763,,44.8235181620417,27.7363968248728,22.3380681721162
0.544, 16.17,16.17,,,-0.0502412,1.637099,1.198465,,,-0.05774349,1.711596,1.167989,,44.8235181620417,27.5586684774257,22.6031119479357
0.555, 16.18,16.18,,,-0.04585189,1.644323,1.204628,,,-0.0534593,1.718723,1.173784,,44.8235181620417,27.3821798092784,22.8800470827694
0.567, 16.23,16.23,,,-0.04170917,1.651263,1.210891,,,-0.04938631,1.725795,1.179712,,44.8235181620417,27.2775139933497,23.0646944116532
0.577, 16.03,16.03,,,-0.03828969,1.658759,1.216277,,,-0.04577025,1.732302,1.185298,,44.8235181620417,27.286430805063,23.1863520302168
0.589, 15.96,15.96,,,-0.03458492,1.66567,1.221616,,,-0.04186104,1.738817,1.190603,,44.8235181620417,27.3448289208415,23.2897781668456
0.599, 15.68,15.68,,,-0.03177678,1.673223,1.226923,,,-0.03869756,1.745067,1.196278,,44.8235181620417,27.4502819160501,23.3759922272449
0.61, 15.6,15.6,,,-0.02872422,1.679952,1.232574,,,-0.03543027,1.751406,1.201976,,44.8235181620417,27.5406367785186,23.4280041163272
