経過時間(s),めり込み量(mm),Y軸めり込み量(mm),,デバイス先端,X座標,Y座標,Z座標,,仮想物体との接触位置,X座標,Y座標,Z座標,,接触点の法線と床の法線とのなす角,接触点の法線とデバイスの方向ベクトルのなす角,床の法線とデバイスの方向ベクトルのなす角
0.001, 0.71,-0.71,,,0.3496299,1.825762,1.307519,,,0.3486249,1.822356,1.307623,,28.8331100240992,12.4355065097393,16.4970391130772
0.01, 0.37,0.37,,,0.3524037,1.818167,1.30845,,,0.3529255,1.819962,1.308398,,29.5371351683016,13.3724598811775,16.2623794329349
0.021, 1.26,1.26,,,0.3542817,1.812135,1.31002,,,0.3560238,1.8182,1.309839,,30.0470463416939,14.0827790445249,16.0855526704331
0.032, 2.33,2.33,,,0.3554378,1.805471,1.311313,,,0.3586243,1.816687,1.310979,,30.4783625304939,14.6938623921826,15.9190326631021
0.045, 3.29,3.29,,,0.3567341,1.799316,1.313089,,,0.3611789,1.815171,1.31262,,30.9057650210085,15.340329533851,15.7183309750209
0.054, 4.29,4.29,,,0.3580411,1.792958,1.314175,,,0.3637544,1.813613,1.313611,,31.3388229079985,15.9682902784782,15.5109510696645
0.066, 5.23,5.23,,,0.360017,1.786456,1.314831,,,0.3668949,1.811677,1.314228,,31.8686748181178,16.6911547914345,15.2895931825607
0.076, 6.26,6.26,,,0.3608422,1.780165,1.315193,,,0.3689193,1.810408,1.314604,,32.2118440030372,17.3143053754726,14.9749110083294
0.088, 7.22,7.22,,,0.3606336,1.774955,1.31583,,,0.3697984,1.809847,1.315217,,32.3629960851634,17.6969496376016,14.7341844128257
0.098, 7.96,7.96,,,0.3594409,1.771527,1.316174,,,0.3694804,1.810045,1.31552,,32.3102704413327,17.7520948758784,14.6244574268629
0.11, 8.49,8.49,,,0.3576182,1.7697,1.31681,,,0.3683104,1.810775,1.3161,,32.1147870176321,17.5820300004667,14.6070131242081
0.121, 9.05,9.05,,,0.3539372,1.768797,1.316884,,,0.3653994,1.812584,1.316106,,31.6240072035726,17.0176924661877,14.6864823729898
0.132, 9.08,9.08,,,0.3510056,1.770415,1.315829,,,0.3626103,1.814296,1.315084,,31.1519182016568,16.390257646112,14.828260020741
0.143, 9.83,9.83,,,0.3459361,1.769214,1.315141,,,0.358558,1.816718,1.314465,,30.4740390208696,15.630656961727,14.8888694102018
0.155, 9.94,9.94,,,0.3424903,1.770618,1.31451,,,0.3552782,1.818631,1.31381,,29.9285357327028,15.0485353228915,14.923810949476
0.17, 9.76,9.76,,,0.3408522,1.772558,1.315237,,,0.3533862,1.819709,1.314458,,29.6184075869739,14.780919980921,14.9006258729835
0.178, 9.75,9.75,,,0.3351101,1.775843,1.315465,,,0.3475564,1.822958,1.314477,,28.6626899788606,13.9421027647467,14.8246297752982
0.188, 9.69,9.69,,,0.3309033,1.778449,1.315543,,,0.343241,1.825282,1.314453,,27.9606882781435,13.2982652458356,14.793765858845
0.199, 9.39,9.39,,,0.3266524,1.782309,1.315664,,,0.3385854,1.827713,1.314495,,27.2086691035263,12.6045280737843,14.7704356408368
0.209, 9.14,9.14,,,0.3216089,1.786239,1.315713,,,0.3332102,1.830425,1.314469,,26.3463970183948,11.7861245849237,14.7670871406894
0.221, 8.81,8.81,,,0.3172874,1.790159,1.315909,,,0.3284447,1.832744,1.314592,,25.587856720849,11.0985089697457,14.7513896588662
0.232, 8.43,8.43,,,0.3124537,1.794512,1.31627,,,0.3230933,1.835255,1.314947,,24.7427642685494,10.3417983090729,14.7147286195164
0.244, 8.05,8.05,,,0.3076764,1.798688,1.31611,,,0.3178087,1.837644,1.314839,,23.9119076376312,9.58554185596725,14.6595441076529
0.254, 7.55,7.55,,,0.3029512,1.803448,1.315948,,,0.3124085,1.83999,1.314748,,23.0684680910646,8.83460014366164,14.5917169159875
0.266, 6.99,6.99,,,0.2984699,1.808329,1.316601,,,0.307173,1.842169,1.315417,,22.2594851403547,8.19663744104693,14.5184580165359
0.277, 6.38,6.38,,,0.294236,1.813321,1.317408,,,0.3021075,1.844193,1.3162,,21.4827218986104,7.68533461664995,14.4286717673
0.288, 5.86,5.86,,,0.2903368,1.81757,1.318282,,,0.2974842,1.845968,1.317044,,20.7792090185815,7.3420040685159,14.2883284592346
0.299, 5.29,5.29,,,0.2872808,1.821719,1.319771,,,0.2936413,1.847378,1.318542,,20.2048362291437,7.2165104450665,14.1241375463457
0.31, 4.66,4.66,,,0.2832313,1.826522,1.320174,,,0.2887698,1.849123,1.319021,,19.4691907250587,6.84790734393303,14.0042054042732
0.321, 4.1,4.1,,,0.2792642,1.83084,1.320784,,,0.2841125,1.850719,1.319732,,18.7724277792893,6.45785915694977,13.9617626099518
0.333, 3.49,3.49,,,0.2749532,1.835441,1.320253,,,0.2791079,1.852387,1.319344,,18.0147873591416,5.82944591230265,14.0378799434916
0.344, 2.91,2.91,,,0.2690651,1.840329,1.319777,,,0.2725796,1.854448,1.319026,,17.033425806503,4.98845200027776,14.2306236076375
0.354, 2.4,2.4,,,0.2639264,1.844543,1.318675,,,0.2668594,1.856166,1.318063,,16.1702709194459,4.28541723347749,14.4064104738671
0.365, 1.89,1.89,,,0.2585321,1.848703,1.317926,,,0.260864,1.857858,1.31744,,15.2739144837572,3.85975686803961,14.5349580455642
0.377, 1.33,1.33,,,0.2549566,1.852581,1.318148,,,0.2565856,1.858994,1.31779,,14.6449770221059,3.95601728265485,14.5274994791981
0.388, 0.97,0.97,,,0.2529927,1.854909,1.31885,,,0.25417,1.859602,1.318571,,14.2980947757023,4.25786168981152,14.4012758793015
0.4, 0.65,0.65,,,0.2507807,1.857073,1.320165,,,0.2515596,1.860229,1.319967,,13.9334403775728,4.64860954427841,14.2308455887794
0.41, 0.45,0.45,,,0.2484921,1.858667,1.320556,,,0.2490228,1.860836,1.320418,,13.5684863049019,4.78163771994631,14.1265161596579
0.421, 0.26,0.26,,,0.2448883,1.860476,1.319962,,,0.2451981,1.861745,1.319881,,13.0003802138532,4.7857328451266,14.1005785170066
0.433, 0.06,0.06,,,0.2411863,1.862366,1.31918,,,0.2412544,1.862644,1.319162,,12.4134279238616,4.74850233877054,14.1457149671069
0.444, 0.11,0.11,,,0.2367817,1.863052,1.317688,,,0.2369153,1.863593,1.317656,,11.7592588903447,4.72455612309367,14.2009327761417
0.454, 0.03,0.03,,,0.2325231,1.864338,1.316378,,,0.2325601,1.864488,1.316369,,11.1089540362433,4.86526271183547,14.237983990037
0.466, 0.06,0.06,,,0.2288974,1.864895,1.315649,,,0.2289683,1.865182,1.315632,,10.5783986166591,5.09142947886796,14.2045382621495
0.477, 0.04,-0.04,,,0.2259232,1.86596,1.314983,,,0.225872,1.865751,1.314996,,10.1221078418538,5.31717661616501,14.1046006445422
0.488, 0.07,0.07,,,0.2238773,1.865759,1.315251,,,0.2239563,1.866086,1.31523,,9.84664205142449,5.52300606862291,13.9840529316879
0.499, 0.05,0.05,,,0.2216053,1.866232,1.315982,,,0.2216619,1.866469,1.315967,,9.52301403717672,5.82648630604028,13.8913117719445
0.511, 0.2,0.2,,,0.2193778,1.865832,1.315332,,,0.2196101,1.866812,1.315268,,9.21771910392474,5.86611548938873,13.7557419122025
0.521, 0.38,0.38,,,0.216295,1.865411,1.314857,,,0.2167323,1.867272,1.314737,,8.79564586836177,5.99734177582637,13.6378784636173
0.533, 0.71,0.71,,,0.2121873,1.864411,1.31386,,,0.212989,1.867838,1.313645,,8.24397833464056,6.18982375835702,13.5489809927224
0.544, 1,1,,,0.2075562,1.863598,1.312062,,,0.2086891,1.86844,1.311771,,7.61027596240209,6.4814997216698,13.5206288782667
0.555, 1.24,1.24,,,0.2036704,1.862853,1.311286,,,0.2050859,1.868903,1.310932,,7.08720301484542,6.8352932655475,13.5013335943983
0.566, 1.35,1.35,,,0.1993507,1.862829,1.310524,,,0.2008853,1.8694,1.310139,,6.48035011548711,7.31214675116369,13.4792575698415
0.577, 1.58,1.58,,,0.1954633,1.86211,1.310144,,,0.1972453,1.869794,1.309685,,5.95621293911,7.70894572618,13.4059815949174
0.588, 1.82,1.82,,,0.1923057,1.86125,1.309485,,,0.1943369,1.870082,1.308956,,5.53979979577735,7.96631834600144,13.3086684774257
0.601, 2.22,2.22,,,0.1879658,1.859614,1.308948,,,0.1904331,1.870436,1.308311,,4.98251784671462,8.33583242359011,13.1882479768411
0.611, 2.74,2.74,,,0.1841457,1.857351,1.308211,,,0.1871655,1.870698,1.307449,,4.52242351042116,8.62406895986467,13.0759323492549
0.622, 3.27,3.27,,,0.1795494,1.855039,1.307051,,,0.1831305,1.87098,1.306181,,3.96713939163507,9.01024613724354,12.9608496413582
0.633, 3.66,3.66,,,0.175947,1.853325,1.306421,,,0.1799115,1.871177,1.305467,,3.52842055864116,9.28298326717536,12.8096821913068
0.644, 4.04,4.04,,,0.1724166,1.851647,1.306016,,,0.1767424,1.871348,1.304979,,3.09907786756947,9.5692031901536,12.6670840671043
0.655, 4.4,4.4,,,0.1687906,1.850016,1.306227,,,0.1734581,1.87151,1.305109,,2.63878502890877,9.89864796409142,12.5314390752835
0.666, 4.75,4.75,,,0.1650621,1.848468,1.305946,,,0.1700469,1.87164,1.304749,,2.18999465537712,10.2560111354848,12.4189074429708
0.677, 4.95,4.95,,,0.1614072,1.847567,1.305899,,,0.1665602,1.871748,1.304647,,1.73764991553333,10.6372082513236,12.3123001458245
0.688, 5.28,5.28,,,0.1570771,1.846035,1.305679,,,0.1625263,1.871832,1.304353,,1.2765623203518,11.095918620575,12.2088782780638
0.699, 5.6,5.6,,,0.1531357,1.844482,1.305652,,,0.1588793,1.871875,1.304276,,0.951210323716807,11.5153110069634,12.111359401129
0.711, 5.9,5.9,,,0.1484254,1.843023,1.304479,,,0.1544382,1.87186,1.303057,,1.03002622223386,12.0503649597645,12.0381226997916
0.721, 6.06,6.06,,,0.1442404,1.842217,1.304543,,,0.1503889,1.871828,1.30311,,1.26439423196232,12.574021888479,11.9814013954076
0.733, 6.19,6.19,,,0.1404479,1.841489,1.303929,,,0.1467239,1.871748,1.302498,,1.69223236046778,13.0668575894214,11.956402903741
0.744, 6.33,6.33,,,0.1362311,1.840681,1.303926,,,0.1426332,1.871635,1.302502,,2.17267799187891,13.6117828728458,11.9110513026878
0.754, 6.34,6.34,,,0.1321783,1.840456,1.303474,,,0.1385657,1.871471,1.302079,,2.71793368569519,14.1348532590816,11.8533148614667
0.766, 6.32,6.32,,,0.1287594,1.840391,1.303625,,,0.1350981,1.87131,1.302213,,3.16842050741474,14.5833362741091,11.8097254491703
0.778, 6.24,6.24,,,0.1244555,1.840553,1.304147,,,0.1307027,1.871069,1.302699,,3.74366030396618,15.2096253299835,11.8138799116174
0.788, 6.17,6.17,,,0.1202348,1.840573,1.304299,,,0.1263988,1.870779,1.302838,,4.33494677575237,15.795008384057,11.7889326463681
0.799, 6.14,6.14,,,0.1161855,1.840383,1.303974,,,0.1222858,1.870448,1.302532,,4.92019877557479,16.3143349729581,11.7222187755065
0.81, 6.16,6.16,,,0.113091,1.840037,1.304242,,,0.1191519,1.87018,1.302818,,5.3524383205476,16.6632722524711,11.6154714594862
0.821, 6.14,6.14,,,0.1092622,1.839727,1.304441,,,0.1152698,1.869809,1.30305,,5.89554677370332,17.1436018773913,11.5304407293276
0.832, 5.97,5.97,,,0.1057953,1.840196,1.304851,,,0.1116093,1.86943,1.303508,,6.40554375134469,17.627928870412,11.4828650479878
0.844, 5.74,5.74,,,0.101556,1.840782,1.304816,,,0.1071374,1.868908,1.303517,,7.04391925350588,18.2477138788302,11.4619860140497
0.855, 5.49,5.49,,,0.09768902,1.841499,1.304878,,,0.1030296,1.868385,1.303621,,7.63033793498343,18.8529574149101,11.478712293088
0.866, 5.19,5.19,,,0.0930747,1.842263,1.304891,,,0.09813908,1.867706,1.303687,,8.33177956020413,19.5834529565042,11.5075758179436
0.877, 4.91,4.91,,,0.08868149,1.842967,1.30504,,,0.09345874,1.867,1.303878,,9.00324348599185,20.2506975330496,11.5050247423596
0.888, 4.83,4.83,,,0.08600885,1.842907,1.306026,,,0.09068117,1.866571,1.304852,,9.39184708800585,20.5960096897614,11.4488310700743
0.899, 4.62,4.62,,,0.08276742,1.843358,1.306725,,,0.08720534,1.865994,1.305592,,9.88759586454825,21.034055322254,11.3796147887252
0.91, 4.6,4.6,,,0.07999575,1.842925,1.307171,,,0.08436336,1.865497,1.306051,,10.296156424988,21.3096432023113,11.2374674569954
0.921, 4.5,4.5,,,0.07796393,1.843043,1.307594,,,0.08216639,1.865098,1.306509,,10.6121653634287,21.4695789074657,11.0730750535316
0.933, 4.3,4.3,,,0.07485637,1.843363,1.307407,,,0.07883927,1.864459,1.306376,,11.0978174131115,21.853570424371,10.9754938511224
0.943, 4.03,4.03,,,0.07120422,1.843899,1.307156,,,0.07492857,1.86367,1.306195,,11.669843178861,22.3955681180439,10.9491122461873
0.955, 3.7,3.7,,,0.06725658,1.844635,1.307168,,,0.07067874,1.862771,1.306278,,12.2909011637504,23.0366086745677,10.97323305857
0.965, 3.47,3.47,,,0.06331527,1.844839,1.307467,,,0.06652907,1.861849,1.306608,,12.8973544970533,23.6659576551051,11.0032440551743
0.978, 3.3,3.3,,,0.05987994,1.844796,1.307662,,,0.06292355,1.861009,1.306825,,13.4261613882587,24.1352616474644,10.9531745010832
0.987, 3.39,3.39,,,0.05740341,1.843761,1.308567,,,0.06047286,1.860426,1.30769,,13.7832043945436,24.3167705045119,10.7777854933616
0.999, 3.63,3.63,,,0.05457334,1.84193,1.309175,,,0.0577836,1.859763,1.308235,,14.1782377657086,24.4905578329176,10.556648733626
1.01, 4.1,4.1,,,0.05240496,1.839141,1.310108,,,0.05591434,1.859293,1.309062,,14.4526371928834,24.4491361518488,10.2308734787177
1.021, 4.39,4.39,,,0.04985218,1.837047,1.310121,,,0.05350617,1.858664,1.309026,,14.8091798878255,24.5138282867723,9.93845942810828
1.032, 4.76,4.76,,,0.04698379,1.83451,1.310238,,,0.05084407,1.857951,1.309071,,15.2038691882207,24.6617957932866,9.6925786012456
1.044, 5.08,5.08,,,0.044003,1.832111,1.310669,,,0.04803148,1.857177,1.309423,,15.6212996028245,24.861933990777,9.47857170503146
1.055, 5.24,5.24,,,0.04088687,1.830427,1.310658,,,0.04495035,1.856302,1.309359,,16.0801414532138,25.1156635585512,9.28899383347772
1.066, 5.74,5.74,,,0.03874526,1.827446,1.311484,,,0.0430647,1.855757,1.310038,,16.3609919938802,25.1616324379335,9.06401423866729
1.077, 6.09,6.09,,,0.03623846,1.824952,1.312183,,,0.04067906,1.855052,1.310631,,16.7175654246727,25.2473837530295,8.80276804792061
1.088, 6.76,6.76,,,0.03392801,1.82101,1.311674,,,0.03867489,1.854441,1.30999,,17.0174585322152,25.2203071763657,8.48750872272051
1.099, 7.3,7.3,,,0.03149509,1.817633,1.311385,,,0.03642669,1.853744,1.309636,,17.3547076508362,25.2372614129612,8.16447749623486
1.11, 7.79,7.79,,,0.02894272,1.814404,1.31083,,,0.03401508,1.852978,1.309002,,17.7176758460612,25.3004167553643,7.87586700711364
1.121, 8.12,8.12,,,0.02680312,1.812053,1.310974,,,0.03191827,1.852302,1.309038,,18.0332083788205,25.3710460320586,7.65334798788324
1.133, 8.27,8.27,,,0.02437008,1.810482,1.311334,,,0.02943692,1.851487,1.309313,,18.4070280367874,25.5554269835723,7.48878226837406
1.143, 8.37,8.37,,,0.0216135,1.809023,1.311662,,,0.0266306,1.850543,1.309566,,18.8309829894143,25.8337930429972,7.36806721588975
1.155, 8.54,8.54,,,0.01949694,1.80747,1.311669,,,0.02449401,1.849807,1.309517,,19.1546861357409,25.9992116823552,7.22754034649549
1.166, 8.49,8.49,,,0.01644257,1.806576,1.311412,,,0.0213332,1.848693,1.309287,,19.6348928172594,26.3641281889868,7.11956999976094
1.177, 8.6,8.6,,,0.01383468,1.805087,1.311603,,,0.01872217,1.847753,1.30948,,20.0322766272071,26.6710085798557,7.0230017997548
1.188, 8.4,8.4,,,0.01087785,1.8049,1.311021,,,0.01562673,1.846606,1.30899,,20.5054755348323,27.0913810983627,6.96491701889572
1.199, 8.3,8.3,,,0.008958941,1.804664,1.310819,,,0.01358169,1.845834,1.308828,,20.8187660580589,27.310602843863,6.87500654559777
1.21, 8.15,8.15,,,0.006997185,1.804599,1.311212,,,0.01148484,1.845032,1.309214,,21.1399386193684,27.5676126098949,6.82917853886321
1.221, 7.86,7.86,,,0.004980089,1.805175,1.311639,,,0.009260349,1.844168,1.309664,,21.4815368608224,27.8509647072752,6.79191345467544
1.233, 7.68,7.68,,,0.002809679,1.80513,1.312438,,,0.006960586,1.843258,1.31048,,21.8358375462318,28.1676669098973,6.76048092498973
1.244, 7.35,7.35,,,0.0004238542,1.805713,1.311796,,,0.004379936,1.842211,1.309912,,22.2346796015268,28.5310636994808,6.7420633204053
1.254, 7.04,7.04,,,-0.001816191,1.806264,1.312445,,,0.001941778,1.841208,1.310626,,22.6124846747635,28.8714000635208,6.70838109722432
1.266, 6.8,6.8,,,-0.003221594,1.806781,1.312647,,,0.0003691539,1.84055,1.310868,,22.8568295628793,29.0528337884895,6.66035248897778
1.277, 6.41,6.41,,,-0.004690941,1.807999,1.313717,,,-0.001338966,1.839827,1.312,,23.1238984897314,29.2837897986574,6.63843953518287
1.288, 6.12,6.12,,,-0.006301627,1.808675,1.314857,,,-0.003121302,1.839058,1.313173,,23.4044416718937,29.5512975651515,6.6413632829531
1.299, 5.9,5.9,,,-0.007394068,1.809216,1.31615,,,-0.00438714,1.838501,1.314474,,23.6066391713615,29.6698389099929,6.58713542443363
1.31, 5.77,5.77,,,-0.008106688,1.809462,1.317428,,,-0.005250506,1.838111,1.315783,,23.7477816115376,29.6619534568156,6.44183766803688
1.322, 5.79,5.79,,,-0.008685403,1.809052,1.318084,,,-0.005915292,1.837811,1.316427,,23.8554031917473,29.589601264951,6.27879081180211
1.333, 5.63,5.63,,,-0.009525567,1.809383,1.318272,,,-0.006905042,1.837368,1.316644,,24.0117393873093,29.600836925823,6.16198433496157
1.344, 5.3,5.3,,,-0.01052646,1.810478,1.319431,,,-0.008120909,1.836807,1.31786,,24.2104551979446,29.6988808735356,6.09515990041584
1.355, 5.03,5.03,,,-0.01083786,1.811565,1.319427,,,-0.008616127,1.836584,1.317889,,24.288375701375,29.6462440221617,6.02515857422082
1.366, 4.75,4.75,,,-0.01156833,1.81256,1.319914,,,-0.009546824,1.836154,1.318428,,24.4385971702527,29.6402505313318,5.9254941641727
1.377, 4.49,4.49,,,-0.01214263,1.813485,1.320312,,,-0.01030722,1.835799,1.318881,,24.5617301096359,29.5865310950045,5.80505146547396
1.388, 4.13,4.13,,,-0.01217923,1.815124,1.320983,,,-0.0105527,1.835672,1.319629,,24.6066812908602,29.4843822037149,5.72388961048571
1.399, 3.7,3.7,,,-0.01268364,1.816953,1.321185,,,-0.01126531,1.835339,1.319931,,24.72151725818,29.5105281671302,5.71576851578855
1.41, 3.04,3.04,,,-0.01397448,1.819519,1.320942,,,-0.0128082,1.834626,1.319895,,24.9643116933974,29.762770461254,5.7586428926761
1.421, 2.44,2.44,,,-0.01484431,1.822002,1.320187,,,-0.01390208,1.834127,1.319349,,25.1322250592803,29.94566243157,5.77414229901884
1.432, 1.81,1.81,,,-0.0157314,1.824632,1.318629,,,-0.01501254,1.833631,1.318014,,25.2973875665517,30.2017774428455,5.84445653324651
1.444, 0.84,0.84,,,-0.01727895,1.828544,1.31854,,,-0.01694347,1.832709,1.318248,,25.6050500140588,30.5603179680643,5.93068553468427
1.455, 0.36,-0.36,,,-0.01807216,1.833879,1.318109,,,-0.01821637,1.832096,1.31824,,25.8071348154085,30.8118738281957,6.08582559340113
1.466, 1.16,-1.16,,,-0.01886195,1.837305,1.317386,,,-0.01932827,1.831564,1.317828,,25.9810843608025,31.0220319129196,6.2154894741096
1.478, 1.9,-1.9,,,-0.01938559,1.840612,1.317147,,,-0.02015022,1.831162,1.3179,,26.1124835363986,31.159670466149,6.30527743089272
1.488, 2.49,-2.49,,,-0.02011633,1.843077,1.316548,,,-0.02109909,1.830701,1.317557,,26.2614926467324,31.2328320354077,6.31717562009578
1.499, 2.92,-2.92,,,-0.02106003,1.844663,1.316067,,,-0.02217276,1.830175,1.317257,,26.4310401353288,31.2536265457571,6.23790786188903
1.51, 3.25,-3.25,,,-0.02120477,1.84621,1.31565,,,-0.02239567,1.830067,1.316989,,26.4650613066379,31.118638105852,6.14863899946838
1.521, 3.37,-3.37,,,-0.02174431,1.846547,1.315489,,,-0.02292503,1.829805,1.316894,,26.549140932981,31.026683271615,6.06650000056918
1.533, 3.58,-3.58,,,-0.02293778,1.846972,1.315533,,,-0.02416032,1.829184,1.317031,,26.7477577058761,31.126632842053,6.01023888016775
1.544, 3.81,-3.81,,,-0.02427802,1.847433,1.314928,,,-0.02555367,1.828486,1.316525,,26.968425743893,31.2557848854748,5.96459955740375
1.555, 3.98,-3.98,,,-0.02599014,1.847353,1.314778,,,-0.02731288,1.827587,1.316439,,27.2508608884027,31.5065177078341,5.9373253321464
1.566, 4.07,-4.07,,,-0.02817377,1.846684,1.313596,,,-0.02953748,1.826446,1.315277,,27.6040226397997,31.8475900247367,5.91244594190014
1.577, 4.14,-4.14,,,-0.03134437,1.845346,1.312452,,,-0.03272346,1.824772,1.314148,,28.1157796717639,32.3039832523766,5.8722938222079
1.588, 3.94,-3.94,,,-0.03388327,1.843056,1.310794,,,-0.03515706,1.823468,1.312369,,28.5072092644683,32.5268079225639,5.7123730580919
1.599, 3.35,-3.35,,,-0.03555989,1.839377,1.310674,,,-0.03658067,1.822692,1.311989,,28.7388739067429,32.5195166958278,5.50085576576095
1.611, 2.7,-2.7,,,-0.03677503,1.83562,1.310132,,,-0.03753072,1.822168,1.311176,,28.8933864418472,32.3657759720782,5.27109589243818
1.621, 2.05,-2.05,,,-0.03778582,1.831967,1.310133,,,-0.03830427,1.821739,1.310929,,29.0198644662833,32.177327643027,5.09639118427508
1.633, 1.44,-1.44,,,-0.038817,1.828458,1.311192,,,-0.03914322,1.821274,1.311759,,29.158083585576,32.0401706181207,4.98994396968307
1.644, 1.02,-1.02,,,-0.04112819,1.825102,1.311476,,,-0.04133985,1.82004,1.31188,,29.5191034693945,32.2022441724258,4.92875230661174
1.654, 0.44,-0.44,,,-0.04339291,1.821017,1.31076,,,-0.0434792,1.818818,1.310933,,29.8710426169641,32.377756123549,4.79697661684803
1.666, 0.24,0.24,,,-0.04579183,1.816291,1.310399,,,-0.04574687,1.817503,1.310306,,30.2462078221601,32.6017590013353,4.64076507223494
1.677, 0.74,0.74,,,-0.04879069,1.812072,1.309657,,,-0.04866066,1.815782,1.309384,,30.7309702397283,32.9307350535544,4.42903390961156
1.688, 1.26,1.26,,,-0.05142871,1.807984,1.30973,,,-0.05121779,1.814249,1.309286,,31.1581029377781,33.25986820012,4.26131008147277
