経過時間(s),めり込み量(mm),Y軸めり込み量(mm),,デバイス先端,X座標,Y座標,Z座標,,仮想物体との接触位置,X座標,Y座標,Z座標,,接触点の法線と床の法線とのなす角,接触点の法線とデバイスの方向ベクトルのなす角,床の法線とデバイスの方向ベクトルのなす角
0.001, 0.27,0.27,,,-0.1463795,1.777245,1.125242,,,-0.1462437,1.778595,1.12524,,45.7999961295596,46.2293827899728,5.7447391892338
0.011, 1.9,1.9,,,-0.1459172,1.771439,1.127454,,,-0.1450227,1.780885,1.127447,,45.7999961295596,46.2521648853154,5.41395740580316
0.022, 3.07,3.07,,,-0.1454303,1.767333,1.129107,,,-0.1440276,1.782602,1.129103,,45.7999961295596,46.2677752822291,5.25404261810251
0.033, 4.19,4.19,,,-0.1455258,1.764146,1.131454,,,-0.1436362,1.78501,1.131424,,45.7999961295596,46.1918543166225,5.17770799917582
0.045, 5.07,5.07,,,-0.1452134,1.761323,1.133012,,,-0.1429081,1.786556,1.132914,,45.7999961295596,46.0587783296318,5.22025794208683
0.055, 5.75,5.75,,,-0.1441859,1.759017,1.134124,,,-0.1415535,1.78766,1.133979,,45.7999961295596,45.9925528172822,5.25105825240508
0.066, 6.5,6.5,,,-0.1432206,1.755817,1.13463,,,-0.1402757,1.788177,1.134477,,45.7999961295596,46.0071899122662,5.19979896477102
0.078, 6.98,6.98,,,-0.1404594,1.752966,1.134183,,,-0.1373739,1.787753,1.134068,,45.7999961295596,46.0781794814293,5.0689449236328
0.089, 7.5,7.5,,,-0.1379926,1.750003,1.133764,,,-0.1347899,1.787374,1.133703,,45.7999961295596,46.1597729189837,4.90076944924771
0.101, 7.74,7.74,,,-0.1349444,1.747906,1.132844,,,-0.1316895,1.786476,1.132838,,45.7999961295596,46.2355880166611,4.82957710884931
0.112, 7.59,7.59,,,-0.1323684,1.747482,1.131688,,,-0.1291297,1.785277,1.131681,,45.7999961295596,46.2408779980261,4.90352671116155
0.122, 6.89,6.89,,,-0.1334892,1.749745,1.130543,,,-0.1304532,1.784069,1.130517,,45.7999961295596,46.2213880537718,5.05888533592577
0.133, 6.58,6.58,,,-0.1322853,1.749977,1.129276,,,-0.1293343,1.782755,1.129251,,45.7999961295596,46.2283855823818,5.14856315591159
0.144, 6.49,6.49,,,-0.1288044,1.747825,1.126726,,,-0.1258288,1.780123,1.126713,,45.7999961295596,46.2596644328154,5.26875356450487
0.155, 6.42,6.42,,,-0.1259054,1.746631,1.125238,,,-0.1229441,1.778609,1.125253,,45.7999961295596,46.3117036426536,5.29805251390797
0.166, 6.28,6.28,,,-0.1224006,1.745209,1.123171,,,-0.1195382,1.77649,1.123211,,45.7999961295596,46.3523500972733,5.23835580844963
0.177, 6.31,6.31,,,-0.118049,1.743107,1.121279,,,-0.1152261,1.774541,1.121332,,45.7999961295596,46.3662222110915,5.14334702596496
0.19, 6.56,6.56,,,-0.1092107,1.739594,1.119144,,,-0.1063909,1.77228,1.119153,,45.7999961295596,46.2691105841747,4.93760807351105
0.199, 6.97,6.97,,,-0.1048055,1.737654,1.11931,,,-0.1018663,1.772356,1.119225,,45.7999961295596,46.1071087468538,4.84258050800669
0.21, 7.09,7.09,,,-0.1007382,1.735754,1.118124,,,-0.09777626,1.77108,1.117995,,45.7999961295596,46.0347668002727,4.79289088317759
0.221, 7.09,7.09,,,-0.09622752,1.733828,1.116246,,,-0.09328455,1.769145,1.11613,,45.7999961295596,46.0533244237313,4.76390654935438
0.232, 7.02,7.02,,,-0.09235256,1.731865,1.113993,,,-0.08945316,1.766856,1.113923,,45.7999961295596,46.1243925400676,4.73871510484909
0.245, 7.06,7.06,,,-0.08948268,1.730051,1.112365,,,-0.08655218,1.765206,1.112333,,45.7999961295596,46.189808675023,4.76920805666325
0.255, 7.08,7.08,,,-0.08483791,1.727643,1.110089,,,-0.08187174,1.7629,1.11011,,45.7999961295596,46.278703584597,4.81735235123564
0.266, 7.04,7.04,,,-0.08052003,1.725775,1.108095,,,-0.07756525,1.760864,1.108147,,45.7999961295596,46.3287005679302,4.82495093647583
0.277, 7.35,7.35,,,-0.07640281,1.722491,1.106356,,,-0.07335477,1.759128,1.106473,,45.7999961295596,46.4225883456485,4.77557037769807
0.288, 7.6,7.6,,,-0.07207336,1.719166,1.104307,,,-0.06898201,1.757042,1.104463,,45.7999961295596,46.4675446495145,4.6911855272849
0.3, 8.01,8.01,,,-0.06803605,1.715736,1.102947,,,-0.06487211,1.755671,1.103141,,45.7999961295596,46.4986254244678,4.56046467483178
0.311, 8.47,8.47,,,-0.06423816,1.712444,1.101989,,,-0.06096524,1.754679,1.102185,,45.7999961295596,46.4785514990557,4.46093686856326
0.322, 8.87,8.87,,,-0.0613625,1.70924,1.100815,,,-0.05797862,1.753478,1.101027,,45.7999961295596,46.4834794804048,4.40540017508051
0.333, 9.16,9.16,,,-0.05867084,1.705421,1.098433,,,-0.05520821,1.75108,1.098716,,45.7999961295596,46.5602815403898,4.37855369040802
0.344, 9.26,9.26,,,-0.05607043,1.702211,1.095743,,,-0.0525921,1.748387,1.09612,,45.7999961295596,46.6710979414949,4.36690779131041
0.356, 9.69,9.69,,,-0.05305313,1.698273,1.093931,,,-0.04948545,1.7466,1.094397,,45.7999961295596,46.7494026430555,4.29732908305851
0.366, 10.11,10.11,,,-0.05016183,1.694216,1.091972,,,-0.0465721,1.744621,1.092489,,45.7999961295596,46.7745616441631,4.15854690006181
0.378, 10.65,10.65,,,-0.04656611,1.690125,1.090581,,,-0.04292928,1.743257,1.091174,,45.7999961295596,46.8154095893577,4.01507707299082
0.389, 11.28,11.28,,,-0.04383013,1.686807,1.090423,,,-0.04009229,1.743099,1.091022,,45.7999961295596,46.7776830405269,3.89440470918763
0.4, 11.66,11.66,,,-0.04113563,1.683755,1.089354,,,-0.03729942,1.74192,1.089885,,45.7999961295596,46.6911103952061,3.85163107758753
0.411, 11.97,11.97,,,-0.03886141,1.681436,1.088676,,,-0.03488915,1.741163,1.089155,,45.7999961295596,46.6294747698511,3.87034579539258
0.422, 12.05,12.05,,,-0.03750259,1.679764,1.087402,,,-0.03342696,1.739866,1.087905,,45.7999961295596,46.6535341105329,3.94709705584704
0.433, 12.3,12.3,,,-0.03593475,1.677344,1.086188,,,-0.03172819,1.738722,1.086802,,45.7999961295596,46.7500310204416,4.00584820701847
0.444, 12.43,12.43,,,-0.03301919,1.672955,1.082313,,,-0.02873957,1.734963,1.083179,,45.7999961295596,46.9774524078124,4.08480433785302
0.456, 12.51,12.51,,,-0.03100581,1.670319,1.079934,,,-0.02672628,1.732701,1.080998,,45.7999961295596,47.1517280947302,4.11094560551333
0.467, 12.46,12.46,,,-0.02836036,1.667776,1.077219,,,-0.02412421,1.729936,1.078332,,45.7999961295596,47.19896909681,4.10116818998854
0.478, 12.33,12.33,,,-0.02784993,1.667907,1.076859,,,-0.0236442,1.729406,1.077822,,45.7999961295596,47.0718900157436,4.07616585634064
0.489, 12.3,12.3,,,-0.02664607,1.66738,1.076329,,,-0.0224423,1.728752,1.077191,,45.7999961295596,46.9800273890578,4.05724068333764
0.5, 12.46,12.46,,,-0.02245581,1.663887,1.073878,,,-0.01817142,1.726051,1.074588,,45.7999961295596,46.8314810240275,4.04442938324532
0.512, 12.43,12.43,,,-0.0194402,1.661543,1.071551,,,-0.01514589,1.72355,1.072177,,45.7999961295596,46.7573256622722,4.04694630788443
0.522, 12.57,12.57,,,-0.01637083,1.659112,1.069854,,,-0.01201859,1.721804,1.070494,,45.7999961295596,46.764705681465,4.05762658901501
0.533, 12.48,12.48,,,-0.01521849,1.657853,1.068109,,,-0.0108838,1.720084,1.068835,,45.7999961295596,46.8492531757533,4.08863820830483
0.544, 12.43,12.43,,,-0.01286034,1.655324,1.065269,,,-0.008526858,1.717307,1.066158,,45.7999961295596,47.0028197296839,4.13980870348214
0.556, 12.34,12.34,,,-0.009629084,1.652756,1.062276,,,-0.005350038,1.714297,1.063257,,45.7999961295596,47.0916770732185,4.14326051023788
0.566, 12.42,12.42,,,-0.006253188,1.650859,1.060855,,,-0.001985513,1.712792,1.061805,,45.7999961295596,47.0554292603019,4.09968774652713
0.578, 12.51,12.51,,,-0.003719581,1.649066,1.059638,,,0.0005780943,1.711463,1.060524,,45.7999961295596,46.9911093706778,4.08067933059595
0.589, 12.62,12.62,,,0.0003800821,1.64679,1.058087,,,0.004760973,1.70975,1.058873,,45.7999961295596,46.8957189513839,4.09529038548448
0.6, 12.67,12.67,,,0.003957208,1.644428,1.056064,,,0.008382211,1.707617,1.056817,,45.7999961295596,46.8639722330051,4.11242220699343
0.611, 12.61,12.61,,,0.006332528,1.642586,1.053945,,,0.01075142,1.705473,1.05475,,45.7999961295596,46.9153318390398,4.13739508545136
0.622, 12.52,12.52,,,0.008725468,1.640718,1.051659,,,0.01312283,1.703173,1.052533,,45.7999961295596,46.9841801439576,4.16184246624464
0.633, 12.63,12.63,,,0.0111469,1.638283,1.049819,,,0.01559129,1.701285,1.050713,,45.7999961295596,46.9961739558064,4.17227600679831
0.645, 12.66,12.66,,,0.01458794,1.63572,1.047505,,,0.01898509,1.698877,1.048391,,45.7999961295596,46.9838522948866,4.11917897144184
0.656, 12.8,12.8,,,0.01936954,1.631873,1.044405,,,0.02373948,1.6957,1.045329,,45.7999961295596,47.0050771071418,4.06216098072407
0.667, 13.14,13.14,,,0.02447592,1.62735,1.041682,,,0.02883888,1.692881,1.042612,,45.7999961295596,46.9810143513654,3.95383845237025
0.678, 13.37,13.37,,,0.02835521,1.624305,1.039928,,,0.03277348,1.690991,1.04079,,45.7999961295596,46.9078015556894,3.91731657812086
0.689, 13.56,13.56,,,0.03264132,1.621311,1.038006,,,0.03712692,1.688933,1.038806,,45.7999961295596,46.8459951756099,3.90635369792123
0.7, 13.49,13.49,,,0.03644694,1.618875,1.035402,,,0.04088842,1.686156,1.036128,,45.7999961295596,46.7854353050192,3.87499758097474
0.712, 13.53,13.53,,,0.03997827,1.615687,1.032584,,,0.04435896,1.683207,1.033286,,45.7999961295596,46.7589956434778,3.80683485627575
0.722, 13.69,13.69,,,0.04430342,1.612411,1.030179,,,0.04862653,1.68073,1.030897,,45.7999961295596,46.7602011718328,3.71941740195548
0.734, 13.9,13.9,,,0.04874006,1.608527,1.027475,,,0.05300526,1.677901,1.02817,,45.7999961295596,46.726057057122,3.61313795388029
0.744, 13.89,13.89,,,0.05223084,1.606019,1.025083,,,0.05642221,1.675317,1.025679,,45.7999961295596,46.641588110007,3.53972260041232
0.756, 13.73,13.73,,,0.05671976,1.603596,1.022151,,,0.06083173,1.672144,1.022621,,45.7999961295596,46.5405935206551,3.49244595328378
0.767, 13.75,13.75,,,0.06025501,1.601346,1.020241,,,0.06440295,1.669975,1.02053,,45.7999961295596,46.3905137781987,3.49328670685853
0.779, 13.66,13.66,,,0.06422796,1.598224,1.016849,,,0.06829771,1.666411,1.017094,,45.7999961295596,46.3536102671401,3.44582841939182
0.789, 13.72,13.72,,,0.06846882,1.595615,1.014623,,,0.07246535,1.664088,1.014855,,45.7999961295596,46.3373407569898,3.36964534528313
0.8, 13.91,13.91,,,0.07347213,1.592346,1.012396,,,0.07740797,1.661771,1.012621,,45.7999961295596,46.324175567731,3.27386987408547
0.811, 14.05,14.05,,,0.0779561,1.589002,1.009821,,,0.08179965,1.659157,1.010101,,45.7999961295596,46.3610005316164,3.17218735663718
0.822, 14.16,14.16,,,0.08289553,1.585688,1.00707,,,0.0866579,1.656384,1.007428,,45.7999961295596,46.4175954775042,3.09376718219415
0.833, 14.39,14.39,,,0.08689813,1.582502,1.005069,,,0.09067258,1.654372,1.005489,,45.7999961295596,46.459901668046,3.06247659237318
0.845, 14.43,14.43,,,0.09131521,1.580046,1.002881,,,0.09509028,1.652093,1.003292,,45.7999961295596,46.4514083280494,3.05421932078324
0.855, 14.41,14.41,,,0.09557452,1.577602,1.000383,,,0.09935983,1.64954,1.000831,,45.7999961295596,46.4819768388292,3.0723688404502
0.867, 14.5,14.5,,,0.09952531,1.57503,0.9982792,,,0.1032909,1.647432,0.9987988,,45.7999961295596,46.5346171052976,3.04960104581577
0.879, 14.53,14.53,,,0.1041499,1.572492,0.9959753,,,0.1078711,1.645044,0.9964965,,45.7999961295596,46.5330734825881,3.00953835891049
0.889, 14.6,14.6,,,0.1085345,1.570689,0.9946408,,,0.1122699,1.643601,0.9951057,,45.7999961295596,46.4867750465876,2.99650080880821
0.9, 14.8,14.8,,,0.1128276,1.568313,0.9933571,,,0.1166284,1.642208,0.9937629,,45.7999961295596,46.4367063462701,2.99787239613275
経過時間(s),めり込み量(mm),Y軸めり込み量(mm),,デバイス先端,X座標,Y座標,Z座標,,仮想物体との接触位置,X座標,Y座標,Z座標,,接触点の法線と床の法線とのなす角,接触点の法線とデバイスの方向ベクトルのなす角,床の法線とデバイスの方向ベクトルのなす角
0.001, 0.24,0.24,,,-0.1248271,1.786318,1.133861,,,-0.124765,1.787498,1.133823,,45.7999961295596,44.2610077033148,3.41718644879123
0.011, 1.61,1.61,,,-0.1265464,1.780605,1.135181,,,-0.1261751,1.788636,1.13492,,45.7999961295596,44.2526987784207,3.09673980850427
0.022, 2.86,2.86,,,-0.1295204,1.775277,1.136269,,,-0.1289068,1.789562,1.135812,,45.7999961295596,44.2700781942802,2.92429183746882
0.036, 3.59,3.59,,,-0.1321874,1.770757,1.13551,,,-0.1314434,1.788671,1.134954,,45.7999961295596,44.3234971022923,2.82479967624904
0.044, 4.08,4.08,,,-0.1349988,1.766916,1.134271,,,-0.1341772,1.787312,1.133643,,45.7999961295596,44.3343912537153,2.75754408602395
0.055, 5.25,5.25,,,-0.136629,1.761588,1.134942,,,-0.1356762,1.787801,1.134114,,45.7999961295596,44.2793774965764,2.59992658969803
0.068, 6.44,6.44,,,-0.13671,1.756071,1.13562,,,-0.1357399,1.788239,1.134536,,45.7999961295596,44.1476129058698,2.40826593739221
0.078, 7.82,7.82,,,-0.1349817,1.750942,1.137673,,,-0.1341462,1.790005,1.136239,,45.7999961295596,43.9606262372603,2.22078941616683
0.09, 8.99,8.99,,,-0.1326247,1.746509,1.13942,,,-0.1320531,1.791429,1.137612,,45.7999961295596,43.750396435552,2.17960316317435
0.1, 9.92,9.92,,,-0.1303518,1.743581,1.141436,,,-0.1300654,1.793106,1.139229,,45.7999961295596,43.4992128207201,2.32548938304041
0.112, 10.65,10.65,,,-0.1286001,1.741617,1.143485,,,-0.1285127,1.79481,1.140872,,45.7999961295596,43.2375756016543,2.56422199024877
0.122, 10.84,10.84,,,-0.1264865,1.741154,1.14413,,,-0.1264245,1.79528,1.141324,,45.7999961295596,43.0819941419746,2.71879770460116
0.134, 10.72,10.72,,,-0.1258422,1.741351,1.143709,,,-0.1256992,1.794857,1.140917,,45.7999961295596,43.0626749524448,2.74173988249798
0.144, 10.28,10.28,,,-0.125497,1.742226,1.142241,,,-0.1251701,1.79356,1.139666,,45.7999961295596,43.1796726745768,2.64678424742132
0.156, 9.41,9.41,,,-0.1270576,1.745468,1.140802,,,-0.1265841,1.792446,1.138593,,45.7999961295596,43.3605736448051,2.50959648666463
0.166, 9.17,9.17,,,-0.1257652,1.744911,1.139,,,-0.1252438,1.790699,1.136909,,45.7999961295596,43.4385504972947,2.45343696532427
0.178, 8.67,8.67,,,-0.1240077,1.7456,1.137091,,,-0.1234398,1.788914,1.135187,,45.7999961295596,43.5384488413154,2.38761528789816
0.188, 8.37,8.37,,,-0.1216224,1.746369,1.136269,,,-0.1209977,1.788167,1.134467,,45.7999961295596,43.5885038812549,2.37726392305564
0.2, 8.03,8.03,,,-0.1194704,1.747712,1.135872,,,-0.1188343,1.787824,1.134136,,45.7999961295596,43.579610975203,2.40558231345331
0.211, 8.02,8.02,,,-0.1159731,1.748506,1.136641,,,-0.1153068,1.788573,1.134859,,45.7999961295596,43.5112032174744,2.48632453870611
0.222, 7.97,7.97,,,-0.112178,1.749284,1.137197,,,-0.1115116,1.789079,1.135346,,45.7999961295596,43.3962784576978,2.59540564492352
0.233, 8.09,8.09,,,-0.1087248,1.749282,1.137843,,,-0.1080774,1.789678,1.135924,,45.7999961295596,43.3374807758639,2.63492511836148
0.244, 8.02,8.02,,,-0.1065723,1.749224,1.137428,,,-0.105953,1.789266,1.135527,,45.7999961295596,43.3394068891563,2.62159408357647
0.255, 7.95,7.95,,,-0.1047469,1.749143,1.136972,,,-0.1041313,1.788859,1.135134,,45.7999961295596,43.4080366280268,2.55772541331181
0.266, 7.52,7.52,,,-0.1040083,1.749084,1.134625,,,-0.1033858,1.786628,1.132984,,45.7999961295596,43.5560878043561,2.44384481867556
0.277, 7.17,7.17,,,-0.101558,1.748428,1.132135,,,-0.1009132,1.784237,1.130679,,45.7999961295596,43.730643529022,2.32051828612345
0.289, 6.58,6.58,,,-0.09962672,1.748352,1.128983,,,-0.09899443,1.781202,1.127753,,45.7999961295596,43.9175823863087,2.19053082521205
0.3, 6.78,6.78,,,-0.09816238,1.747746,1.12943,,,-0.0975257,1.781601,1.128137,,45.7999961295596,43.8731690824666,2.21611351147984
0.311, 6.95,6.95,,,-0.09823987,1.74715,1.129817,,,-0.09763172,1.78188,1.128407,,45.7999961295596,43.7333551140471,2.3049467359096
0.322, 6.89,6.89,,,-0.09447143,1.745891,1.128359,,,-0.09392837,1.780298,1.126882,,45.7999961295596,43.5997361270324,2.38540081256482
0.334, 6.83,6.83,,,-0.09011054,1.743975,1.126359,,,-0.08967996,1.778098,1.124761,,45.7999961295596,43.3739881359617,2.53574437107051
0.344, 6.91,6.91,,,-0.08725294,1.742639,1.12552,,,-0.08690232,1.777131,1.123828,,45.7999961295596,43.2461269982572,2.62226600341737
0.355, 6.71,6.71,,,-0.08463431,1.741199,1.123115,,,-0.08435693,1.774692,1.121477,,45.7999961295596,43.2535240929224,2.59216066482783
0.366, 6.56,6.56,,,-0.08210549,1.739103,1.120307,,,-0.08189115,1.771851,1.118739,,45.7999961295596,43.3099243784243,2.51924925124053
0.378, 6.26,6.26,,,-0.0798723,1.737686,1.117413,,,-0.07969815,1.768963,1.115954,,45.7999961295596,43.3803641173745,2.44136076432091
0.389, 6.2,6.2,,,-0.07747147,1.735141,1.114668,,,-0.07733846,1.766116,1.11321,,45.7999961295596,43.3553827011804,2.45750220842777
0.4, 6.22,6.22,,,-0.07460587,1.732746,1.112523,,,-0.07449953,1.763825,1.111002,,45.7999961295596,43.2472232435884,2.56063187216618
0.411, 6.35,6.35,,,-0.07204846,1.730446,1.111017,,,-0.0719462,1.762159,1.109395,,45.7999961295596,43.1227464645234,2.6838713198088
0.422, 6.26,6.26,,,-0.06971829,1.728097,1.108294,,,-0.06960861,1.759333,1.106671,,45.7999961295596,43.0755976699949,2.7321562735855
0.433, 6.38,6.38,,,-0.06994954,1.726823,1.107657,,,-0.06982318,1.758683,1.106045,,45.7999961295596,43.1528129564132,2.65726495896764
0.444, 6.24,6.24,,,-0.06809479,1.724223,1.104398,,,-0.06797394,1.755403,1.102883,,45.7999961295596,43.2680279992214,2.54206613785826
0.467, 6.04,6.04,,,-0.06360361,1.71906,1.098312,,,-0.06350461,1.749234,1.096936,,45.7999961295596,43.4378708934912,2.36992488499669
0.477, 6.28,6.28,,,-0.0562517,1.709465,1.090128,,,-0.05619115,1.740826,1.088831,,45.7999961295596,43.681957941973,2.12098733512208
0.488, 6.45,6.45,,,-0.05411933,1.707604,1.089207,,,-0.0540789,1.739815,1.087856,,45.7999961295596,43.6485275820107,2.15267791788519
0.499, 6.65,6.65,,,-0.05187053,1.70513,1.087845,,,-0.05186071,1.738326,1.08642,,45.7999961295596,43.5917311455479,2.20832794981632
0.51, 7.13,7.13,,,-0.04723102,1.700099,1.085459,,,-0.04730172,1.735695,1.083884,,45.7999961295596,43.5174357649186,2.28541858528572
0.522, 7.36,7.36,,,-0.04292431,1.696999,1.083723,,,-0.04305395,1.733779,1.082037,,45.7999961295596,43.4261024778787,2.3827737511284
0.533, 7.36,7.36,,,-0.03911309,1.694471,1.08132,,,-0.0393086,1.731235,1.079584,,45.7999961295596,43.3471250027036,2.47250962772055
0.543, 7.55,7.55,,,-0.0348416,1.691324,1.07925,,,-0.03509372,1.729018,1.077448,,45.7999961295596,43.3133223974419,2.51715046223304
0.555, 7.7,7.7,,,-0.03132983,1.688789,1.077574,,,-0.03161918,1.727252,1.075745,,45.7999961295596,43.3289942660563,2.50983042063719
0.566, 7.8,7.8,,,-0.02753308,1.685692,1.075083,,,-0.0278329,1.724661,1.073247,,45.7999961295596,43.3556115125112,2.48545838536609
0.577, 7.93,7.93,,,-0.02326008,1.683278,1.073398,,,-0.02355557,1.722887,1.071537,,45.7999961295596,43.3610073618054,2.47764977181477
0.588, 7.82,7.82,,,-0.02020983,1.681068,1.070711,,,-0.02043461,1.720102,1.068853,,45.7999961295596,43.3252376621174,2.49755657104023
0.6, 7.67,7.67,,,-0.01727222,1.679465,1.068449,,,-0.01742334,1.717772,1.066606,,45.7999961295596,43.2967967552049,2.51372683000684
0.61, 7.49,7.49,,,-0.01430931,1.677207,1.06537,,,-0.01439369,1.714619,1.063567,,45.7999961295596,43.2914418870446,2.51193518606004
0.622, 7.46,7.46,,,-0.01191523,1.675372,1.063447,,,-0.01199276,1.712645,1.061664,,45.7999961295596,43.3109625671493,2.491907577867
0.632, 7.55,7.55,,,-0.007858481,1.672173,1.060786,,,-0.007968124,1.709897,1.059015,,45.7999961295596,43.3623665694124,2.44344439884661
0.644, 7.51,7.51,,,-0.002602357,1.668354,1.05682,,,-0.002737273,1.705844,1.055108,,45.7999961295596,43.4348963461904,2.37438051608908
0.654, 7.71,7.71,,,0.001330096,1.664578,1.054158,,,0.001179643,1.703086,1.052449,,45.7999961295596,43.5089253494495,2.30239779475965
0.666, 7.52,7.52,,,0.004913919,1.662097,1.050778,,,0.004781872,1.69967,1.049156,,45.7999961295596,43.5781390694778,2.23125219846708
0.677, 7.59,7.59,,,0.008306345,1.658488,1.047618,,,0.008204155,1.696398,1.046002,,45.7999961295596,43.6089261463049,2.19659795401689
0.688, 7.55,7.55,,,0.01170352,1.655507,1.04456,,,0.01163181,1.693244,1.042961,,45.7999961295596,43.6236008073283,2.17915407824892
0.699, 7.6,7.6,,,0.01496734,1.653278,1.042681,,,0.01493931,1.69124,1.04103,,45.7999961295596,43.5592706724207,2.24114231211004
0.71, 7.56,7.56,,,0.0181791,1.650516,1.039917,,,0.0181958,1.688295,1.038191,,45.7999961295596,43.4335542140558,2.36645365489104
0.721, 7.71,7.71,,,0.0221427,1.64702,1.037302,,,0.02218948,1.685504,1.0355,,45.7999961295596,43.3693777584003,2.43164055162883
0.733, 7.79,7.79,,,0.02603477,1.643266,1.034097,,,0.02606634,1.682188,1.032303,,45.7999961295596,43.4111853451465,2.38917235754218
0.744, 7.96,7.96,,,0.0299976,1.638831,1.03061,,,0.03001118,1.678599,1.028843,,45.7999961295596,43.5063298776372,2.29362527078853
