経過時間(s),めり込み量(mm),Y軸めり込み量(mm),,デバイス先端,X座標,Y座標,Z座標,,仮想物体との接触位置,X座標,Y座標,Z座標,,接触点の法線と床の法線とのなす角,接触点の法線とデバイスの方向ベクトルのなす角,床の法線とデバイスの方向ベクトルのなす角
0.001, 0.43,-0.43,,,0.2824547,1.624635,1.064234,,,0.2819377,1.622572,1.064128,,44.8234874261913,38.570176207492,14.4079745871435
0.011, 1.78,-1.78,,,0.2819155,1.632313,1.063909,,,0.2797306,1.623703,1.06352,,44.8234874261913,38.2065813424281,14.5020331195864
0.028, 3.35,-3.35,,,0.2825963,1.640297,1.063422,,,0.2784503,1.624079,1.062772,,44.8234874261913,37.9167354428751,14.5508979990961
0.034, 4.47,-4.47,,,0.2837085,1.646209,1.063927,,,0.2781535,1.624555,1.063148,,44.8234874261913,37.692677923577,14.5607642070777
0.044, 5.52,-5.52,,,0.2844825,1.651845,1.064336,,,0.277621,1.625133,1.063433,,44.8234874261913,37.5828416545905,14.560152905164
0.056, 6.75,-6.75,,,0.2855743,1.657515,1.063643,,,0.2771559,1.624853,1.062572,,44.8234874261913,37.5102265004502,14.5989261804559
0.067, 7.52,-7.52,,,0.2852676,1.66187,1.063356,,,0.2758386,1.625466,1.062122,,44.8234874261913,37.5273975955458,14.6748659290821
0.078, 8.38,-8.38,,,0.2852322,1.666503,1.062996,,,0.2746483,1.625968,1.061642,,44.8234874261913,37.4470574976692,14.78209818852
0.089, 9.19,-9.19,,,0.2836751,1.672025,1.062624,,,0.2719554,1.627591,1.061244,,44.8234874261913,37.2624853008641,14.9047957033558
0.101, 9.92,-9.92,,,0.2825119,1.677137,1.062649,,,0.2697513,1.629226,1.061352,,44.8234874261913,37.0014218176727,15.0149444534881
0.112, 10.47,-10.47,,,0.280943,1.681545,1.062659,,,0.2673976,1.630998,1.061505,,44.8234874261913,36.7534210709053,15.0771828430206
0.122, 10.95,-10.95,,,0.2806619,1.684999,1.06319,,,0.2664808,1.63212,1.062174,,44.8234874261913,36.5755287989227,15.0693691068276
0.133, 11.19,-11.19,,,0.2811679,1.686834,1.064256,,,0.2667566,1.632777,1.063379,,44.8234874261913,36.4757055869808,14.9713302817567
0.144, 11.06,-11.06,,,0.2832754,1.686424,1.066798,,,0.2692046,1.632957,1.066082,,44.8234874261913,36.434055094581,14.7776005090768
0.155, 10.89,-10.89,,,0.28517,1.686022,1.069516,,,0.2714459,1.633358,1.06889,,44.8234874261913,36.4345366229041,14.6345865971202
0.166, 10.55,-10.55,,,0.2869495,1.683446,1.070565,,,0.2737525,1.632371,1.069801,,44.8234874261913,36.6415186697524,14.5276497433556
0.177, 10.19,-10.19,,,0.2864852,1.68181,1.070937,,,0.2737585,1.632506,1.069998,,44.8234874261913,36.8430399805112,14.5323864794132
0.188, 10,-10,,,0.2850804,1.680623,1.069472,,,0.2725202,1.632244,1.068389,,44.8234874261913,36.9606182687065,14.6295834836924
0.2, 9.83,-9.83,,,0.2843584,1.680244,1.069596,,,0.2719505,1.632721,1.068493,,44.8234874261913,36.9595322686587,14.7124166005466
0.211, 9.54,-9.54,,,0.2831028,1.679933,1.070164,,,0.271,1.633826,1.069106,,44.8234874261913,36.9088795871834,14.7858325943448
0.222, 8.99,-8.99,,,0.2824101,1.678527,1.071782,,,0.2709469,1.635097,1.070851,,44.8234874261913,36.7966459218649,14.8554048992946
0.232, 8.31,-8.31,,,0.281758,1.676148,1.073186,,,0.2711719,1.636003,1.072357,,44.8234874261913,36.7654080525651,14.8379315683366
0.244, 7.68,-7.68,,,0.2826708,1.672602,1.074163,,,0.2729703,1.635448,1.07337,,44.8234874261913,36.869845057163,14.7025162416202
0.255, 6.15,-6.15,,,0.2845771,1.66475,1.077428,,,0.2769641,1.634984,1.076708,,44.8234874261913,37.1532808243583,14.4342622769801
0.266, 4.99,-4.99,,,0.2866754,1.657853,1.079218,,,0.2806121,1.633667,1.078493,,44.8234874261913,37.5707283144346,14.2023944365834
0.277, 4.06,-4.06,,,0.2888204,1.65185,1.08039,,,0.2839524,1.63215,1.079688,,44.8234874261913,37.9412319156517,14.0572401141552
0.288, 3.26,-3.26,,,0.2891901,1.647001,1.080317,,,0.2852892,1.631188,1.079664,,44.8234874261913,38.2198797203721,14.0868344692317
0.3, 2.45,-2.45,,,0.2877365,1.644133,1.08118,,,0.2847782,1.632253,1.08066,,44.8234874261913,38.2765668738111,14.2359571314572
0.31, 1.95,-1.95,,,0.2850192,1.643272,1.081145,,,0.2826198,1.633833,1.080736,,44.8234874261913,38.1082949230067,14.5060014593837
0.322, 1.42,-1.42,,,0.2825756,1.642396,1.081591,,,0.2808005,1.635524,1.081308,,44.8234874261913,37.8958862910139,14.7032299963686
0.333, 0.87,-0.87,,,0.2818827,1.640308,1.08232,,,0.2807965,1.636123,1.082151,,44.8234874261913,37.8188417593201,14.7633476122229
0.344, 0.31,-0.31,,,0.2827884,1.637436,1.083537,,,0.2824004,1.635925,1.083475,,44.8234874261913,37.8892644227978,14.6229974739684
0.355, 0.21,0.21,,,0.2842109,1.634292,1.084593,,,0.2844631,1.635286,1.084633,,44.8234874261913,38.0266195231845,14.4397417960893
0.366, 1.72,1.72,,,0.286662,1.626305,1.087599,,,0.2887223,1.634627,1.087962,,44.8234874261913,38.3141465735788,14.1524350192896
0.378, 2.48,2.48,,,0.2884898,1.621898,1.08913,,,0.2914368,1.633932,1.089692,,44.8234874261913,38.5341811115677,14.0466627127462
0.389, 3.17,3.17,,,0.2886278,1.618559,1.089854,,,0.2923905,1.633916,1.090623,,44.8234874261913,38.691272043012,14.0920108987049
0.4, 3.78,3.78,,,0.2869237,1.616369,1.089832,,,0.2914662,1.634699,1.090807,,44.8234874261913,38.761605914033,14.2757446898127
0.411, 4.06,4.06,,,0.2854953,1.615621,1.089509,,,0.2904332,1.635278,1.090593,,44.8234874261913,38.7635798386482,14.4777108166288
0.422, 4.39,4.39,,,0.2842074,1.614957,1.089905,,,0.2896082,1.636204,1.091078,,44.8234874261913,38.6846194389455,14.634383398998
0.433, 4.75,4.75,,,0.2839452,1.613978,1.091121,,,0.2897989,1.636967,1.092348,,44.8234874261913,38.5832457741052,14.6347607669392
0.444, 4.6,4.6,,,0.2847078,1.614381,1.09126,,,0.2903314,1.636633,1.092407,,44.8234874261913,38.5488694329691,14.5139603370926
0.455, 5.26,5.26,,,0.2861075,1.610927,1.092909,,,0.2924929,1.636399,1.094238,,44.8234874261913,38.6354113424395,14.4141080968475
0.466, 6.71,6.71,,,0.2890061,1.602989,1.095684,,,0.2969752,1.635521,1.097478,,44.8234874261913,38.9342218650286,14.1516111277439
0.477, 7.19,7.19,,,0.2904096,1.599754,1.09609,,,0.2988409,1.634646,1.098106,,44.8234874261913,39.1533138369383,14.0125433574705
0.489, 7.43,7.43,,,0.2912671,1.598288,1.09661,,,0.2999611,1.634321,1.098768,,44.8234874261913,39.2648644833588,14.0225965418753
0.5, 7.62,7.62,,,0.2899559,1.598157,1.096627,,,0.2989962,1.635092,1.098892,,44.8234874261913,39.2367480104229,14.2238147629981
0.511, 7.47,7.47,,,0.2883225,1.59947,1.095796,,,0.2973297,1.635657,1.098025,,44.8234874261913,39.1345820436608,14.4433020320951
0.522, 7.63,7.63,,,0.286992,1.599702,1.096124,,,0.2963638,1.636613,1.098412,,44.8234874261913,39.0170379064105,14.7078574494025
0.533, 7.56,7.56,,,0.2865508,1.600576,1.09643,,,0.2958712,1.637137,1.09866,,44.8234874261913,38.9415540728986,14.7475254794508
0.544, 7.56,7.56,,,0.2875988,1.600183,1.096921,,,0.2968251,1.63678,1.099109,,44.8234874261913,38.9603097718375,14.5845844911452
0.555, 7.55,7.55,,,0.2882416,1.599904,1.097018,,,0.2973911,1.636442,1.099196,,44.8234874261913,38.9985929810701,14.4947623834172
0.567, 8.23,8.23,,,0.2913415,1.596375,1.10033,,,0.3010862,1.636307,1.102701,,44.8234874261913,39.163975761936,14.1592635007223
0.577, 8.55,8.55,,,0.2925494,1.595256,1.102348,,,0.302563,1.636756,1.104812,,44.8234874261913,39.2403543502043,14.0163511878268
0.589, 8.45,8.45,,,0.2910658,1.596193,1.101388,,,0.3010451,1.637152,1.103856,,44.8234874261913,39.2159842359238,14.1501580050384
0.6, 8.31,8.31,,,0.2890599,1.597943,1.100844,,,0.2990081,1.638209,1.103313,,44.8234874261913,39.1725783849563,14.3435044333618
0.611, 8.27,8.27,,,0.2854281,1.600639,1.100765,,,0.29555,1.640665,1.103328,,44.8234874261913,39.143720836516,14.6834514766299
0.622, 8.02,8.02,,,0.2825033,1.603809,1.100411,,,0.2924501,1.642554,1.1029,,44.8234874261913,39.0484157945843,14.8849198534241
0.633, 7.83,7.83,,,0.2810711,1.606391,1.101244,,,0.2907974,1.644247,1.103641,,44.8234874261913,38.9991223207161,14.8829664193759
0.644, 7.95,7.95,,,0.2812923,1.60712,1.103438,,,0.2910358,1.645595,1.105786,,44.8234874261913,38.9886379806319,14.6608930699764
0.655, 7.91,7.91,,,0.2807624,1.609787,1.106412,,,0.2903373,1.648108,1.108642,,44.8234874261913,38.9453243372155,14.4469288624434
0.666, 7.87,7.87,,,0.280203,1.613443,1.110736,,,0.2895447,1.65163,1.11283,,44.8234874261913,38.9293963365143,14.1301540890634
0.677, 7.89,7.89,,,0.2781873,1.61667,1.113359,,,0.2874309,1.654963,1.11543,,44.8234874261913,38.9836826785269,13.9503929066211
0.689, 7.49,7.49,,,0.2755866,1.621936,1.115072,,,0.2842948,1.658312,1.117029,,44.8234874261913,39.0264669822973,13.8426082556494
0.7, 7.11,7.11,,,0.2719108,1.62833,1.117559,,,0.2802055,1.662869,1.119385,,44.8234874261913,38.9611259794206,13.8707853465126
0.711, 6.82,6.82,,,0.2675959,1.634753,1.120115,,,0.2755789,1.66787,1.121831,,44.8234874261913,38.8848805798375,13.9043360885557
0.722, 6.42,6.42,,,0.2633398,1.641772,1.122732,,,0.2708787,1.672947,1.12431,,44.8234874261913,38.8057221046544,13.9305179104631
0.733, 6.2,6.2,,,0.258845,1.648011,1.125347,,,0.2661179,1.678101,1.126838,,44.8234874261913,38.7575043855505,13.9115820652898
0.744, 5.91,5.91,,,0.2549986,1.654556,1.12853,,,0.2618847,1.683276,1.129924,,44.8234874261913,38.7657450085548,13.7973736215825
0.755, 5.55,5.55,,,0.25204,1.660997,1.131821,,,0.2584349,1.687961,1.133099,,44.8234874261913,38.7838211036902,13.6465084073935
0.766, 5.26,5.26,,,0.2488626,1.667984,1.136279,,,0.254843,1.693563,1.13743,,44.8234874261913,38.76704957465,13.4410520540086
0.778, 5.02,5.02,,,0.2454899,1.67449,1.140312,,,0.2511426,1.698948,1.141345,,44.8234874261913,38.7133984402125,13.2677052727921
0.788, 4.75,4.75,,,0.2410582,1.682439,1.145038,,,0.2463665,1.705575,1.145941,,44.8234874261913,38.6109831715527,13.144768701342
0.8, 4.32,4.32,,,0.2358615,1.69135,1.149179,,,0.2406927,1.712404,1.149924,,44.8234874261913,38.4385311450926,13.1107560677691
0.811, 3.94,3.94,,,0.2303147,1.70031,1.153402,,,0.2347376,1.719521,1.154035,,44.8234874261913,38.3008994220522,13.129441757271
0.822, 3.55,3.55,,,0.2239087,1.70931,1.156657,,,0.2279077,1.726587,1.157198,,44.8234874261913,38.1847383980702,13.181420349182
0.833, 3.38,3.38,,,0.218002,1.717437,1.160949,,,0.221813,1.733901,1.161446,,44.8234874261913,38.1341847543352,13.1731506978746
0.844, 3.37,3.37,,,0.2127546,1.724653,1.165848,,,0.2165343,1.741088,1.166332,,44.8234874261913,38.1420258112842,13.0861178685712
0.855, 3.35,3.35,,,0.2082593,1.731573,1.170955,,,0.2119631,1.747917,1.171419,,44.8234874261913,38.1887682095684,12.8962838649307
0.867, 3.54,3.54,,,0.205113,1.737,1.176933,,,0.2089418,1.754281,1.177398,,44.8234874261913,38.269610326335,12.612632093009
0.878, 3.67,3.67,,,0.201414,1.743667,1.183678,,,0.2053005,1.761616,1.184129,,44.8234874261913,38.3388718576862,12.3265931700387
0.889, 3.88,3.88,,,0.1970335,1.750049,1.189902,,,0.2010723,1.768996,1.190337,,44.8234874261913,38.3385235180482,12.129251081162
0.9, 4,4,,,0.1918138,1.757407,1.196105,,,0.1959607,1.776974,1.196509,,44.8234874261913,38.2679266847515,12.0466015256365
0.911, 4.14,4.14,,,0.1853716,1.765011,1.201592,,,0.1896698,1.785279,1.201963,,44.8234874261913,38.1543918684323,12.0387613224612
0.922, 4.27,4.27,,,0.1777245,1.772754,1.205908,,,0.1821732,1.793619,1.20626,,44.8234874261913,38.0520585620403,12.0936529899721
0.934, 4.52,4.52,,,0.170259,1.779669,1.210193,,,0.1749772,1.801752,1.210567,,44.8234874261913,38.0413795615702,12.1175748731008
0.944, 4.74,4.74,,,0.164191,1.785569,1.214209,,,0.1691083,1.808769,1.214621,,44.8234874261913,38.1311623957115,12.0298837843345
0.955, 5.23,5.23,,,0.1586872,1.790471,1.219427,,,0.1640135,1.816092,1.219883,,44.8234874261913,38.2592625900304,11.8082236613683
0.966, 5.69,5.69,,,0.1547673,1.795181,1.225693,,,0.1603972,1.823069,1.226133,,44.8234874261913,38.3521497450632,11.4684977454685
0.978, 6.01,6.01,,,0.1512597,1.800025,1.231506,,,0.1570525,1.829513,1.231901,,44.8234874261913,38.4106605589599,11.1584208261569
0.988, 6.53,6.53,,,0.1468567,1.804396,1.237334,,,0.1530056,1.836462,1.237683,,44.8234874261913,38.4435581641818,10.8882979510571
1, 6.79,6.79,,,0.1416374,1.809644,1.24156,,,0.1479353,1.842999,1.241856,,44.8234874261913,38.4465292963881,10.717829240722
1.011, 6.89,6.89,,,0.1361082,1.815849,1.245616,,,0.1424711,1.849689,1.245853,,44.8234874261913,38.3847638974424,10.6677468800266
1.023, 7.01,7.01,,,0.1289314,1.82243,1.248787,,,0.1354648,1.856852,1.248977,,44.8234874261913,38.2606593636768,10.7608611388429
1.033, 7.15,7.15,,,0.1221374,1.828449,1.251729,,,0.1288894,1.863564,1.251895,,44.8234874261913,38.1447066604588,10.8954918476003
1.045, 7.38,7.38,,,0.1158783,1.83362,1.25461,,,0.1228847,1.869839,1.254764,,44.8234874261913,38.0850415446245,10.9585472984895
1.055, 6.22,6.22,,,0.1098607,1.837162,1.257897,,,0.1157426,1.867721,1.258035,,45.1770350832657,52.9806182004046,10.9056227254048
1.067, 4.28,4.28,,,0.1045278,1.83922,1.261308,,,0.1085151,1.860228,1.261405,,45.1770350832657,52.8606595913498,10.7576603415322
1.078, 2.66,2.66,,,0.09919103,1.839718,1.264943,,,0.1016173,1.852795,1.265019,,45.1770350832657,52.6333713926642,10.5254552605546
1.089, 1.19,1.19,,,0.09387702,1.83952,1.268793,,,0.09493615,1.84537,1.268839,,45.1770350832657,52.3652693997288,10.2807825233678
1.1, 0.32,0.32,,,0.08945219,1.837857,1.271991,,,0.08973204,1.839448,1.272009,,45.1770350832657,52.004379289501,10.0064949405375
1.111, 0.47,-0.47,,,0.08496642,1.83569,1.275496,,,0.08456767,1.833356,1.27546,,45.1770350832657,51.6827354451519,9.76408299590302
1.122, 1.41,-1.41,,,0.0797934,1.833595,1.279131,,,0.07863879,1.826656,1.279006,,45.1770350832657,51.3827706206251,9.53330883951674
1.133, 2.23,-2.23,,,0.07527243,1.831782,1.282383,,,0.07347619,1.820773,1.282164,,45.1770350832657,51.1693545357577,9.36894546435609
1.144, 3.12,-3.12,,,0.06957379,1.828982,1.286264,,,0.06708886,1.813595,1.285928,,45.1770350832657,51.0250633784619,9.29409171577762
1.155, 3.96,-3.96,,,0.06369509,1.826173,1.289712,,,0.06056684,1.806651,1.289225,,45.1770350832657,50.8616545222112,9.25501705839698
1.167, 4.24,-4.24,,,0.05760156,1.821362,1.292374,,,0.05426881,1.800435,1.291719,,45.1770350832657,50.5934056802128,9.27186201196877
1.178, 4.19,-4.19,,,0.05249156,1.815721,1.295116,,,0.04924085,1.795048,1.294309,,45.1770350832657,50.2345099851671,9.2670919787399
1.189, 4.28,-4.28,,,0.04834392,1.810159,1.29956,,,0.04507466,1.789053,1.298621,,45.1770350832657,49.9394868023673,9.22837249118621
1.2, 4.12,-4.12,,,0.04460341,1.803339,1.304635,,,0.0415068,1.782984,1.303636,,45.1770350832657,49.659151940969,9.16182169108649
1.211, 3.76,-3.76,,,0.0418003,1.79637,1.309485,,,0.03904227,1.777818,1.308477,,45.1770350832657,49.3223963035017,9.08376287632918
1.222, 3.46,-3.46,,,0.03788196,1.789369,1.313669,,,0.03540765,1.772298,1.312649,,45.1770350832657,48.9694394577741,9.00821842489012
1.233, 3.32,-3.32,,,0.03260306,1.782649,1.317132,,,0.03026491,1.766242,1.316071,,45.1770350832657,48.6900095964155,9.00125760854593
1.245, 3.49,-3.49,,,0.02603461,1.777393,1.319217,,,0.02360094,1.76015,1.318023,,45.1770350832657,48.4711635113091,9.04806660117274
1.256, 3.47,-3.47,,,0.02018337,1.772121,1.320776,,,0.0177983,1.754987,1.31952,,45.1770350832657,48.2460131617742,9.06032764416537
1.267, 3.51,-3.51,,,0.01486516,1.766797,1.32333,,,0.01250605,1.749471,1.32203,,45.1770350832657,48.0489690398917,8.96093985677094
1.278, 3.47,-3.47,,,0.01088724,1.760765,1.327728,,,0.008622855,1.743598,1.326451,,45.1770350832657,47.8808234475834,8.73725116767772
1.289, 3.46,-3.46,,,0.007895948,1.75462,1.333461,,,0.005717285,1.737483,1.332194,,45.1770350832657,47.682734306787,8.49502534569294
1.3, 3.36,-3.36,,,0.004549623,1.747786,1.339205,,,0.002516851,1.731132,1.337976,,45.1770350832657,47.4592402780798,8.25028772171078
1.311, 3.17,-3.17,,,0.001521427,1.740944,1.344638,,,-0.0003231317,1.725254,1.343448,,45.1770350832657,47.1874431529063,8.10287772937198
1.322, 2.69,-2.69,,,-0.001370674,1.733539,1.349103,,,-0.002893373,1.720194,1.348034,,45.1770350832657,46.8838480829367,8.08473418612037
1.334, 2.59,-2.59,,,-0.005461136,1.727549,1.352818,,,-0.006894074,1.714747,1.351736,,45.1770350832657,46.634617902153,8.13721052805329
1.344, 2.39,-2.39,,,-0.009102747,1.721836,1.355957,,,-0.01042003,1.710009,1.354911,,45.1770350832657,46.4754232725029,8.25138225949482
1.356, 2.68,-2.68,,,-0.01354604,1.717721,1.359311,,,-0.01504116,1.704475,1.358116,,45.1770350832657,46.481508970884,8.37969760476656
経過時間(s),めり込み量(mm),Y軸めり込み量(mm),,デバイス先端,X座標,Y座標,Z座標,,仮想物体との接触位置,X座標,Y座標,Z座標,,接触点の法線と床の法線とのなす角,接触点の法線とデバイスの方向ベクトルのなす角,床の法線とデバイスの方向ベクトルのなす角
0.001, 0.24,-0.24,,,0.2939097,1.651604,1.115195,,,0.293597,1.650426,1.11518,,44.8234874261913,36.3229689010112,14.9192483832374
0.01, 0.58,0.58,,,0.2963637,1.645362,1.115454,,,0.2970947,1.648178,1.115498,,44.8234874261913,36.6439672925017,14.5855885289253
0.021, 1.36,1.36,,,0.2985656,1.640188,1.116531,,,0.3002441,1.646764,1.116648,,44.8234874261913,36.8684619438946,14.3663975192754
0.033, 2.01,2.01,,,0.2992786,1.636095,1.116683,,,0.3017476,1.645856,1.116867,,44.8234874261913,36.9832876659309,14.2506975330496
0.044, 2.47,2.47,,,0.2996539,1.633078,1.11641,,,0.3026805,1.645037,1.116641,,44.8234874261913,36.9976788741116,14.2612518825708
0.055, 2.96,2.96,,,0.3000687,1.630361,1.116932,,,0.3037282,1.644699,1.117211,,44.8234874261913,36.9442804566664,14.377776614116
0.067, 3.07,3.07,,,0.2987414,1.630406,1.116568,,,0.3025873,1.645249,1.116848,,44.8234874261913,36.8073932242249,14.5811523211828
0.078, 4.09,4.09,,,0.2987355,1.625208,1.117372,,,0.3039284,1.644974,1.1178,,44.8234874261913,36.8430433956057,14.7890171699567
0.088, 4.65,4.65,,,0.2989199,1.621403,1.116628,,,0.304856,1.643892,1.117197,,44.8234874261913,36.9842165716322,14.8768090040105
0.099, 5.13,5.13,,,0.2992953,1.617766,1.115525,,,0.3058131,1.642558,1.116268,,44.8234874261913,37.2340273184792,14.850048323587
0.11, 5.65,5.65,,,0.3010377,1.613306,1.114925,,,0.30813,1.640612,1.115833,,44.8234874261913,37.4778923858192,14.7064982417955
0.121, 6.03,6.03,,,0.3026493,1.610385,1.115396,,,0.3101536,1.639569,1.116381,,44.8234874261913,37.5747786164997,14.5731063585644
0.132, 6.41,6.41,,,0.3030979,1.608571,1.116309,,,0.3110453,1.63958,1.117289,,44.8234874261913,37.4944692544735,14.5113443747133
0.143, 5.91,5.91,,,0.3024808,1.611523,1.116072,,,0.3098618,1.640141,1.116899,,44.8234874261913,37.3196778882877,14.5782085097325
0.154, 5.95,5.95,,,0.3021185,1.611744,1.116316,,,0.3095645,1.640512,1.117126,,44.8234874261913,37.2596097913036,14.6217799927828
0.166, 6.29,6.29,,,0.3025541,1.609319,1.116062,,,0.3104439,1.639757,1.116937,,44.8234874261913,37.2780615468329,14.6462593900869
0.177, 6.82,6.82,,,0.3037443,1.6055,1.115964,,,0.3122944,1.638475,1.116975,,44.8234874261913,37.3665295695956,14.6639564097339
0.188, 7.15,7.15,,,0.3052517,1.60218,1.115378,,,0.3142084,1.636786,1.116501,,44.8234874261913,37.4654375362142,14.6523228903538
0.199, 7.45,7.45,,,0.3059103,1.600248,1.115649,,,0.3152519,1.636304,1.116862,,44.8234874261913,37.5141572742082,14.6753508724997
0.21, 7.42,7.42,,,0.3053474,1.600563,1.115309,,,0.3147061,1.63643,1.116495,,44.8234874261913,37.4366585349472,14.7689227539777
0.222, 7.42,7.42,,,0.3037346,1.601341,1.114913,,,0.3132457,1.637166,1.116076,,44.8234874261913,37.2841301697416,15.0055836794911
0.233, 7.49,7.49,,,0.301747,1.60224,1.114882,,,0.3115249,1.638363,1.116047,,44.8234874261913,37.1330498045997,15.279098597193
0.243, 7.37,7.37,,,0.2991266,1.604016,1.113893,,,0.3088561,1.639548,1.115054,,44.8234874261913,37.0709224056381,15.4483797084192
0.254, 7.41,7.41,,,0.2975665,1.604715,1.113602,,,0.3073587,1.640416,1.114784,,44.8234874261913,37.0801397456665,15.4755245869728
0.266, 7.25,7.25,,,0.2992699,1.604591,1.113825,,,0.3087152,1.639591,1.114974,,44.8234874261913,37.1837605426813,15.2402365294444
0.277, 7.29,7.29,,,0.2994144,1.60491,1.114666,,,0.3088391,1.64009,1.115804,,44.8234874261913,37.212969845854,15.1328147322623
0.288, 7.22,7.22,,,0.2978786,1.607499,1.116219,,,0.3070773,1.642368,1.117263,,44.8234874261913,37.2096708645767,14.8989934578173
0.299, 6.85,6.85,,,0.2965234,1.611207,1.117293,,,0.3052215,1.644337,1.118192,,44.8234874261913,37.1087718978705,14.8126530389218
0.31, 6.59,6.59,,,0.2928654,1.616274,1.118895,,,0.3013301,1.648132,1.119668,,44.8234874261913,36.8847553597062,14.9629325644058
0.321, 6.16,6.16,,,0.2892554,1.621461,1.119298,,,0.2972887,1.651205,1.119972,,44.8234874261913,36.6909009360774,15.1868534799244
