経過時間(s),めり込み量(mm),Y軸めり込み量(mm),,デバイス先端,X座標,Y座標,Z座標,,仮想物体との接触位置,X座標,Y座標,Z座標,,接触点の法線と床の法線とのなす角,接触点の法線とデバイスの方向ベクトルのなす角,床の法線とデバイスの方向ベクトルのなす角
0.001, 0.81,-0.81,,,0.1545657,1.572203,0.9229547,,,0.1538498,1.568226,0.9224436,,45.7999961295596,54.031162737221,12.6169479186707
0.011, 0.66,-0.66,,,0.1545576,1.571889,0.9232759,,,0.1539693,1.568659,0.9228611,,45.7999961295596,54.0458578888114,12.7103686822175
0.022, 0.42,-0.42,,,0.1552839,1.571525,0.9238904,,,0.1549034,1.569453,0.9236267,,45.7999961295596,53.9930741883743,12.7423655562677
0.033, 0.33,-0.33,,,0.1544465,1.571035,0.9238178,,,0.1541531,1.569443,0.9236171,,45.7999961295596,53.9307452988378,12.7346833012125
0.044, 0.53,-0.53,,,0.153582,1.570858,0.9228251,,,0.153111,1.568285,0.9224999,,45.7999961295596,53.9393718275195,12.6860233273721
0.055, 0.45,-0.45,,,0.1538169,1.569837,0.9221665,,,0.153422,1.567649,0.9218873,,45.7999961295596,53.9876885843636,12.61189699392
0.067, 0.16,0.16,,,0.15416,1.566659,0.9215838,,,0.1542975,1.567438,0.9216844,,45.7999961295596,54.0290487937317,12.4651281855717
0.079, 1.12,1.12,,,0.1548904,1.56367,0.9226123,,,0.1558151,1.569126,0.9233114,,45.7999961295596,53.9385590350309,12.1464512045607
0.09, 1.9,1.9,,,0.155632,1.562211,0.9244502,,,0.1571612,1.571516,0.925615,,45.7999961295596,53.7424506490387,11.8257670017633
0.101, 2.92,2.92,,,0.1569068,1.559577,0.9261384,,,0.1591843,1.573874,0.9278879,,45.7999961295596,53.5539066973418,11.5118037049222
0.112, 3.83,3.83,,,0.1578558,1.557446,0.9279232,,,0.1607412,1.576237,0.9301666,,45.7999961295596,53.3525937073469,11.1621791376431
0.122, 5,5,,,0.1595958,1.554008,0.9294977,,,0.1632109,1.578557,0.9324032,,45.7999961295596,53.256018250265,10.8567586996686
0.133, 6.2,6.2,,,0.1615489,1.550767,0.931452,,,0.1658757,1.581245,0.9349941,,45.7999961295596,53.1059350927141,10.5565556723012
0.144, 7.14,7.14,,,0.1631268,1.548317,0.9331312,,,0.1679686,1.583449,0.9371184,,45.7999961295596,52.9300884623309,10.2834616649952
0.154, 8.3,8.3,,,0.1646367,1.546155,0.9359967,,,0.1701846,1.587008,0.9405499,,45.7999961295596,52.8048057209663,10.1244975542232
0.166, 9.19,9.19,,,0.1656873,1.544142,0.9377766,,,0.1717919,1.589391,0.9428469,,45.7999961295596,52.8330348920204,10.108594312957
0.177, 9.45,9.45,,,0.1654768,1.54295,0.9375288,,,0.1717805,1.589467,0.9429202,,45.7999961295596,53.0508462034964,10.2747531740457
0.189, 9.65,9.65,,,0.1651619,1.541799,0.9370309,,,0.1716386,1.589288,0.9427476,,45.7999961295596,53.3047994599597,10.4769617725706
0.199, 9.38,9.38,,,0.1638097,1.542315,0.936178,,,0.170255,1.588401,0.9418923,,45.7999961295596,53.5252711300434,10.7541829215678
0.211, 9.13,9.13,,,0.1633162,1.543996,0.9367505,,,0.1697183,1.58884,0.9423156,,45.7999961295596,53.5479951687797,10.8771920637758
0.222, 9.19,9.19,,,0.1619497,1.545188,0.9381583,,,0.1685614,1.590325,0.9437473,,45.7999961295596,53.5546989992635,11.0207651974551
0.233, 9.3,9.3,,,0.1605741,1.546128,0.9395293,,,0.1673575,1.5918,0.9451688,,45.7999961295596,53.5478312442441,11.0933982808414
0.244, 9.43,9.43,,,0.160808,1.547263,0.9412067,,,0.1676628,1.593575,0.9468796,,45.7999961295596,53.4903176379385,11.0366710000421
0.255, 9.89,9.89,,,0.1598642,1.547775,0.9436476,,,0.1670297,1.596338,0.9495432,,45.7999961295596,53.4269266540156,10.977968940854
0.266, 10.21,10.21,,,0.1587505,1.549584,0.9467828,,,0.1661461,1.599718,0.9528016,,45.7999961295596,53.3519550846773,10.9282357735701
0.278, 10,10,,,0.1571514,1.551569,0.9478059,,,0.1644363,1.600664,0.9537136,,45.7999961295596,53.37266080257,10.9748296152441
0.288, 9.37,9.37,,,0.1524731,1.556255,0.9496317,,,0.1594108,1.60223,0.9552231,,45.7999961295596,53.4594042026153,11.1271599049693
0.3, 8.73,8.73,,,0.1471274,1.561581,0.952085,,,0.1537028,1.604426,0.9573408,,45.7999961295596,53.5334434511579,11.2730049302581
0.311, 8.37,8.37,,,0.1429885,1.566073,0.9549625,,,0.1493297,1.607117,0.9599344,,45.7999961295596,53.4551455797863,11.2633393590778
0.322, 8.09,8.09,,,0.1393145,1.570396,0.9581577,,,0.145448,1.610113,0.9628226,,45.7999961295596,53.2508921934355,11.1333164665611
0.333, 8.16,8.16,,,0.1360464,1.574579,0.9627135,,,0.142195,1.614659,0.9672047,,45.7999961295596,52.9453163686617,10.9060018008932
0.346, 8.09,8.09,,,0.1321144,1.578768,0.9666346,,,0.1381788,1.618533,0.9709393,,45.7999961295596,52.7281744157058,10.7395133831861
0.355, 7.89,7.89,,,0.1275061,1.583204,0.9700959,,,0.133446,1.621958,0.9742417,,45.7999961295596,52.6624031109234,10.7320514017255
0.366, 7.44,7.44,,,0.1223947,1.587848,0.972703,,,0.128071,1.62439,0.9765857,,45.7999961295596,52.6359327135316,10.8015195462933
0.378, 7.13,7.13,,,0.1165843,1.591894,0.9752762,,,0.1220974,1.626912,0.9790172,,45.7999961295596,52.6814388476105,10.9144464757932
0.389, 6.91,6.91,,,0.1110004,1.595826,0.9780923,,,0.1163924,1.629764,0.9817662,,45.7999961295596,52.7702244741608,11.0253909429417
0.399, 7.08,7.08,,,0.105908,1.598945,0.9817634,,,0.1114395,1.633701,0.9855617,,45.7999961295596,52.8291348541129,11.0706392373866
0.411, 7.34,7.34,,,0.1011297,1.60222,0.9860257,,,0.1069046,1.638252,0.9899492,,45.7999961295596,52.8146309478139,11.1081736871523
0.422, 7.53,7.53,,,0.09689724,1.606433,0.9909272,,,0.102935,1.643378,0.9948901,,45.7999961295596,52.7462231900853,11.2000619270468
0.434, 7.83,7.83,,,0.09201744,1.610053,0.9957141,,,0.0984202,1.648455,0.9997849,,45.7999961295596,52.6992758861316,11.3121572810384
0.445, 8,8,,,0.08773005,1.613659,0.9998808,,,0.09439997,1.65288,1.00405,,45.7999961295596,52.7394100765778,11.4747994485761
0.456, 8.29,8.29,,,0.08300917,1.617179,1.004436,,,0.09003262,1.657796,1.008789,,45.7999961295596,52.8075104758023,11.6326408470345
0.466, 8.29,8.29,,,0.07908753,1.620612,1.007679,,,0.08619802,1.661197,1.012068,,45.7999961295596,52.8772193845317,11.7667302633152
0.477, 8.38,8.38,,,0.07449912,1.624064,1.011306,,,0.08177821,1.665064,1.015796,,45.7999961295596,52.9702124074936,11.9157333972335
0.488, 8.39,8.39,,,0.0702689,1.627361,1.014496,,,0.07761969,1.668427,1.019038,,45.7999961295596,53.0403823539791,12.0150784959469
0.5, 8.49,8.49,,,0.06589934,1.630743,1.018183,,,0.07340887,1.67229,1.022762,,45.7999961295596,53.033104787621,12.0849948716664
0.511, 8.57,8.57,,,0.06163813,1.634099,1.021829,,,0.06927972,1.676038,1.026375,,45.7999961295596,52.9430692364873,12.0995039006071
0.522, 8.6,8.6,,,0.05776053,1.63729,1.025148,,,0.06544805,1.679385,1.029601,,45.7999961295596,52.8035318907215,12.0445729595095
0.533, 8.82,8.82,,,0.05412472,1.640372,1.029148,,,0.0619987,1.683532,1.033599,,45.7999961295596,52.6553919219355,11.9609851067729
0.544, 9.2,9.2,,,0.05079262,1.643349,1.033854,,,0.0589742,1.688417,1.038308,,45.7999961295596,52.4118478734776,11.80001035912
0.555, 9.5,9.5,,,0.0475093,1.646286,1.038112,,,0.05590791,1.692829,1.042561,,45.7999961295596,52.2244821293797,11.6604012963699
0.566, 9.68,9.68,,,0.04404735,1.649283,1.041869,,,0.05257885,1.69672,1.046312,,45.7999961295596,52.1133037282587,11.5803250145426
0.577, 9.77,9.77,,,0.03974479,1.651718,1.044564,,,0.04834923,1.699586,1.049075,,45.7999961295596,52.1456924844016,11.5915649442827
0.589, 9.63,9.63,,,0.035246,1.654838,1.046899,,,0.04374647,1.702016,1.051417,,45.7999961295596,52.2321592617932,11.652152989403
0.6, 9.29,9.29,,,0.03118975,1.658028,1.048437,,,0.03942512,1.703532,1.052879,,45.7999961295596,52.3402845684402,11.7403426819648
0.611, 9.09,9.09,,,0.02645032,1.661292,1.050738,,,0.03455578,1.705818,1.055083,,45.7999961295596,52.3468517951444,11.7902201369908
0.622, 8.76,8.76,,,0.02185307,1.665134,1.053111,,,0.02968773,1.708029,1.057214,,45.7999961295596,52.2457410925798,11.7683549945188
0.633, 8.65,8.65,,,0.017532,1.668253,1.055778,,,0.02526499,1.710625,1.059717,,45.7999961295596,52.0957945388086,11.6906428118522
0.644, 8.61,8.61,,,0.01423739,1.671185,1.058574,,,0.02188174,1.713374,1.062366,,45.7999961295596,51.9151633610449,11.5477697725433
0.656, 8.72,8.72,,,0.01045745,1.674058,1.061949,,,0.01813706,1.716803,1.065672,,45.7999961295596,51.7492205046827,11.4025087284123
0.666, 8.95,8.95,,,0.006897133,1.676212,1.065152,,,0.01470268,1.720139,1.068889,,45.7999961295596,51.6209871216787,11.2548212596462
0.678, 9.05,9.05,,,0.002785549,1.678599,1.067923,,,0.01065317,1.723008,1.071654,,45.7999961295596,51.5595427416151,11.2029451205699
0.689, 9.1,9.1,,,-0.001662616,1.681093,1.070486,,,0.006252106,1.72572,1.074268,,45.7999961295596,51.6011146868415,11.2303153953598
0.7, 9.21,9.21,,,-0.006056912,1.682928,1.072644,,,0.00195954,1.728096,1.076559,,45.7999961295596,51.7090009368743,11.2848954354985
0.711, 9.42,9.42,,,-0.01014011,1.68464,1.075151,,,-0.001970679,1.730844,1.079207,,45.7999961295596,51.765790543148,11.2805668032325
0.722, 9.53,9.53,,,-0.01388952,1.686853,1.077856,,,-0.005697522,1.733641,1.081904,,45.7999961295596,51.6821309734271,11.1637133688427
0.733, 9.96,9.96,,,-0.01754729,1.688465,1.081436,,,-0.009071201,1.737382,1.08551,,45.7999961295596,51.4891473988933,10.9931840405804
0.745, 10.23,10.23,,,-0.02049213,1.690682,1.084977,,,-0.01189036,1.740925,1.088926,,45.7999961295596,51.21336485845,10.7753197951399
0.755, 10.32,10.32,,,-0.0243712,1.693008,1.087801,,,-0.01575451,1.743732,1.091632,,45.7999961295596,51.0315247372369,10.6350797936828
0.766, 10.39,10.39,,,-0.02857685,1.695439,1.09054,,,-0.01992057,1.746532,1.094331,,45.7999961295596,50.9557062244651,10.5817471168065
0.777, 10.46,10.46,,,-0.03299832,1.697923,1.093207,,,-0.02428272,1.749343,1.097041,,45.7999961295596,50.9760465272473,10.5938835088502
0.789, 10.5,10.5,,,-0.0371846,1.699672,1.095019,,,-0.0284621,1.751294,1.098922,,45.7999961295596,51.0303431145434,10.5921187587725
0.8, 10.81,10.81,,,-0.04147347,1.701216,1.097842,,,-0.03258999,1.754354,1.101872,,45.7999961295596,51.0296771711179,10.508092066394
0.811, 11.17,11.17,,,-0.04436579,1.702748,1.101072,,,-0.03529125,1.757728,1.105124,,45.7999961295596,50.8946887312127,10.3504880170026
0.822, 11.47,11.47,,,-0.0480919,1.70503,1.104813,,,-0.03885661,1.761517,1.108777,,45.7999961295596,50.6861903824109,10.1892579910365
経過時間(s),めり込み量(mm),Y軸めり込み量(mm),,デバイス先端,X座標,Y座標,Z座標,,仮想物体との接触位置,X座標,Y座標,Z座標,,接触点の法線と床の法線とのなす角,接触点の法線とデバイスの方向ベクトルのなす角,床の法線とデバイスの方向ベクトルのなす角
0.001, 0.08,0.08,,,0.1884608,1.575765,0.9301153,,,0.1885186,1.576154,0.9300856,,45.7999961295596,42.3683691671609,9.39657528632721
0.011, 1.33,-1.33,,,0.1902091,1.581831,0.9287422,,,0.1892204,1.575295,0.9292581,,45.7999961295596,42.2550051055663,9.56903841184446
0.022, 2.68,-2.68,,,0.1910617,1.587808,0.9275346,,,0.1890469,1.574623,0.9286098,,45.7999961295596,42.1240328167813,9.71104060205839
0.034, 4.12,-4.12,,,0.1928242,1.595073,0.9270338,,,0.1897062,1.574793,0.9287736,,45.7999961295596,41.8971168633951,9.86607393907244
0.045, 5.72,-5.72,,,0.1934878,1.603143,0.9264388,,,0.1891031,1.575003,0.9289761,,45.7999961295596,41.674391230948,10.082038538203
0.055, 7.54,-7.54,,,0.194207,1.612154,0.9255081,,,0.188295,1.575072,0.929043,,45.7999961295596,41.4241057859669,10.3969537926332
0.066, 9.41,-9.41,,,0.1942382,1.622095,0.9251814,,,0.1866191,1.575891,0.9298322,,45.7999961295596,41.185342869795,10.8063467823549
0.077, 11.75,-11.75,,,0.1940333,1.632939,0.9232484,,,0.1841136,1.575371,0.9293311,,45.7999961295596,40.9890500687003,11.2985173936454
0.088, 14.05,-14.05,,,0.1930749,1.644719,0.9223478,,,0.1805818,1.575997,0.9299347,,45.7999961295596,40.8355074204311,11.8793728861988
0.1, 16.27,-16.27,,,0.1927319,1.65491,0.9204268,,,0.1776501,1.575489,0.9294448,,45.7999961295596,40.7593747189662,12.3494162465152
0.11, 18.53,-18.53,,,0.1917793,1.665658,0.9188387,,,0.1739129,1.575368,0.9293288,,45.7999961295596,40.7139403018716,12.7988486578109
0.122, 20.3,-20.3,,,0.192225,1.674969,0.9183067,,,0.1720974,1.576213,0.9301425,,45.7999961295596,40.5907407681458,13.1774511556111
0.133, 21.85,-21.85,,,0.1924365,1.683424,0.9178569,,,0.1704319,1.577241,0.9311337,,45.7999961295596,40.3549763049361,13.4781877914925
0.144, 23.15,-23.15,,,0.1933782,1.691252,0.9180911,,,0.1697251,1.578888,0.9327215,,45.7999961295596,40.1201441625221,13.7724775827506
0.155, 24.43,-24.43,,,0.1948533,1.698971,0.9181372,,,0.1696951,1.580519,0.9342936,,45.7999961295596,39.8132330358027,14.032937447991
0.168, 25.81,-25.81,,,0.1953153,1.70721,0.9181486,,,0.16821,1.582301,0.9360117,,45.7999961295596,39.5234349475726,14.4319605032939
0.177, 27.28,-27.28,,,0.1946124,1.714834,0.917255,,,0.165254,1.583043,0.9367266,,45.7999961295596,39.3533871476334,14.828873030202
0.188, 28.48,-28.48,,,0.1944488,1.720968,0.9163302,,,0.1632655,1.583593,0.9372571,,45.7999961295596,39.1718407245464,15.1513928462877
0.199, 29.46,-29.46,,,0.1942356,1.725481,0.9150639,,,0.1616505,1.583525,0.9371918,,45.7999961295596,39.0221093217281,15.3685108935822
0.21, 29.8,-29.8,,,0.1945724,1.72665,0.9141865,,,0.1617968,1.58308,0.9367625,,45.7999961295596,38.9308750724285,15.353182241964
0.221, 29.82,-29.82,,,0.1944368,1.725641,0.9128169,,,0.1620753,1.581874,0.9356002,,45.7999961295596,38.8181735391649,15.2488869637875
0.233, 29.28,-29.28,,,0.1954457,1.722205,0.9120184,,,0.164627,1.580882,0.9346435,,45.7999961295596,38.6287450779951,14.9911600279127
0.244, 28.41,-28.41,,,0.1977352,1.719639,0.9134165,,,0.1689112,1.582381,0.9360893,,45.7999961295596,38.2419309854938,14.8056111140835
0.255, 27.18,-27.18,,,0.2012911,1.71711,0.9165018,,,0.1746795,1.585796,0.9393805,,45.7999961295596,37.6571506955978,14.8010673308646
0.266, 26.63,-26.63,,,0.2030783,1.716089,0.9179341,,,0.1773692,1.587476,0.9410005,,45.7999961295596,37.3464966253175,14.8667754563989
0.277, 26.53,-26.53,,,0.2033673,1.715091,0.9174954,,,0.1776511,1.587009,0.9405503,,45.7999961295596,37.3242541149043,14.9251906476499
0.289, 26.73,-26.73,,,0.2020141,1.713834,0.9160724,,,0.1754529,1.584794,0.9384155,,45.7999961295596,37.7595181529348,14.8952607595398
0.299, 26.89,-26.89,,,0.201465,1.711718,0.9141535,,,0.1741266,1.581811,0.9355395,,45.7999961295596,38.277973892741,14.8065331895958
0.31, 26.92,-26.92,,,0.1996505,1.708923,0.9124918,,,0.1716526,1.578828,0.9326634,,45.7999961295596,38.8554936917513,14.7107090533017
0.322, 26.6,-26.6,,,0.1977926,1.705421,0.9118648,,,0.1697,1.576807,0.9307161,,45.7999961295596,39.3533325061216,14.5997799540784
0.333, 25.76,-25.76,,,0.1960144,1.700987,0.9127574,,,0.1688259,1.576325,0.930251,,45.7999961295596,39.6820455960649,14.4051878700397
0.344, 24.69,-24.69,,,0.1942181,1.69534,0.913298,,,0.168391,1.575718,0.929666,,45.7999961295596,39.8384739991781,14.2063474084555
0.355, 23.17,-23.17,,,0.191836,1.689284,0.9153675,,,0.1680605,1.576974,0.9308761,,45.7999961295596,39.7129658615771,14.0494485760764
0.366, 21.32,-21.32,,,0.1897905,1.682834,0.9185505,,,0.1683998,1.579431,0.9332455,,45.7999961295596,39.430995169918,13.9491037084511
0.377, 19.14,-19.14,,,0.1874802,1.67415,0.9216282,,,0.1688108,1.581263,0.935011,,45.7999961295596,39.2467918033179,13.7460865863057
0.388, 17.12,-17.12,,,0.1847233,1.664794,0.923532,,,0.1685506,1.581555,0.9352922,,45.7999961295596,39.3097968815634,13.362548423194
0.399, 14.94,-14.94,,,0.1826073,1.65431,0.9253328,,,0.169069,1.581506,0.935245,,45.7999961295596,39.4826553042678,12.8320433762535
0.411, 12.5,-12.5,,,0.1808874,1.642246,0.9270626,,,0.1701,1.581184,0.9349352,,45.7999961295596,39.7643698638402,12.1909883055781
0.422, 10.44,-10.44,,,0.1787776,1.632436,0.9287881,,,0.1701675,1.581355,0.9351,,45.7999961295596,39.9654745330712,11.6588474283769
0.433, 8.51,-8.51,,,0.1771605,1.623896,0.9308664,,,0.1703795,1.582196,0.9359107,,45.7999961295596,40.0436938572695,11.3095976677181
0.444, 6.67,-6.67,,,0.1748749,1.61643,0.9334425,,,0.1696838,1.583702,0.937362,,45.7999961295596,40.0679341979594,11.0919963845533
0.455, 5.06,-5.06,,,0.1723697,1.610097,0.9359149,,,0.1684833,1.585297,0.9389001,,45.7999961295596,40.0142796484274,11.0275518439803
0.466, 3.38,-3.38,,,0.171079,1.604135,0.9390655,,,0.1685357,1.587548,0.9410703,,45.7999961295596,39.9530914004506,10.8941539843338
0.478, 1.59,-1.59,,,0.1704721,1.597767,0.9424416,,,0.1693119,1.589944,0.9433793,,45.7999961295596,39.9588048535323,10.6400940061677
0.489, 0.13,0.13,,,0.1695142,1.591475,0.9455476,,,0.1696065,1.592115,0.9454721,,45.7999961295596,40.0240673092357,10.4040853637019
0.5, 1.53,1.53,,,0.168083,1.586444,0.9481027,,,0.169146,1.59395,0.9472414,,45.7999961295596,40.1774733537252,10.1742469432058
0.51, 2.73,2.73,,,0.1662705,1.582408,0.950542,,,0.1681681,1.595822,0.9490466,,45.7999961295596,40.3566189653857,10.0570374852155
0.522, 3.86,3.86,,,0.1648518,1.579207,0.953421,,,0.1675471,1.598203,0.9513414,,45.7999961295596,40.4717178949813,10.009384110476
0.533, 4.9,4.9,,,0.1631483,1.576221,0.9560113,,,0.1665942,1.60033,0.9533921,,45.7999961295596,40.5278893691524,10.0283660594249
0.544, 6.48,6.48,,,0.1622312,1.571737,0.9599957,,,0.16676,1.603614,0.9565578,,45.7999961295596,40.5633824461867,9.96426900471625
0.555, 7.97,7.97,,,0.1620326,1.5675,0.9637564,,,0.167508,1.606761,0.9595915,,45.7999961295596,40.6376470909656,9.78930261493785
0.566, 9.31,9.31,,,0.1612816,1.56312,0.9664768,,,0.1675481,1.60899,0.9617403,,45.7999961295596,40.7692409269477,9.56875069013368
0.577, 10.67,10.67,,,0.1611365,1.559414,0.970004,,,0.1681763,1.612046,0.9646865,,45.7999961295596,40.8682274407396,9.36703557276257
0.588, 11.99,11.99,,,0.1613642,1.555076,0.9727417,,,0.1690485,1.614259,0.9668198,,45.7999961295596,40.8889707246717,9.15875408246087
0.6, 13.27,13.27,,,0.1612386,1.551384,0.9759384,,,0.1694445,1.6169,0.9693655,,45.7999961295596,40.8363372883922,8.96275924836047
0.611, 14.69,14.69,,,0.1619341,1.547077,0.9793805,,,0.1706451,1.619656,0.9720222,,45.7999961295596,40.7359027745366,8.7695212492871
0.622, 15.89,15.89,,,0.1624985,1.543479,0.9823397,,,0.1715528,1.622003,0.9742848,,45.7999961295596,40.6328898643411,8.60916121864232
0.633, 16.82,16.82,,,0.1627132,1.540601,0.9845701,,,0.1719962,1.623759,0.9759772,,45.7999961295596,40.5634814839269,8.48149047245555
0.644, 17.37,17.37,,,0.1619429,1.539062,0.9858865,,,0.1714216,1.62495,0.977126,,45.7999961295596,40.628986411339,8.37857318490574
0.655, 17.73,17.73,,,0.1604957,1.538299,0.9868771,,,0.1702107,1.625975,0.9781135,,45.7999961295596,40.7466773976525,8.32206447015378
0.666, 17.88,17.88,,,0.1589785,1.537678,0.9868271,,,0.1689728,1.626124,0.9782578,,45.7999961295596,40.9343539153489,8.3055311439542
0.677, 18.18,18.18,,,0.157201,1.536925,0.9873762,,,0.1674643,1.626826,0.978934,,45.7999961295596,41.109900017417,8.25207210858179
0.688, 18.57,18.57,,,0.1559681,1.535541,0.9879854,,,0.1664429,1.627402,0.9794892,,45.7999961295596,41.188235454828,8.19740412975993
0.7, 19.16,19.16,,,0.1549156,1.533929,0.989475,,,0.1655304,1.628756,0.980795,,45.7999961295596,41.2266211168953,8.07190282234792
0.71, 19.95,19.95,,,0.1548931,1.531121,0.9910201,,,0.1656274,1.629892,0.9818892,,45.7999961295596,41.1524862457069,7.96040254857118
0.722, 20.54,20.54,,,0.1541985,1.529635,0.9928331,,,0.1649423,1.631328,0.9832741,,45.7999961295596,41.0444155805718,7.88495798864595
0.733, 21.22,21.22,,,0.1536039,1.52744,0.9944056,,,0.1643523,1.63252,0.984423,,45.7999961295596,40.965656671444,7.77897309247051
0.744, 21.71,21.71,,,0.1531434,1.52589,0.9954536,,,0.1639199,1.633415,0.9852861,,45.7999961295596,40.9768274455207,7.67595762095411
0.755, 21.98,21.98,,,0.151501,1.524975,0.995814,,,0.16235,1.633896,0.9857495,,45.7999961295596,41.0941530167237,7.56918981436685
0.766, 21.73,21.73,,,0.1495624,1.525584,0.9948308,,,0.1604761,1.633262,0.9851384,,45.7999961295596,41.2397624004927,7.55592985623591
0.777, 21.69,21.69,,,0.1470204,1.525538,0.9942882,,,0.1581027,1.633035,0.9849192,,45.7999961295596,41.4118012005195,7.5293407843106
0.788, 21.41,21.41,,,0.1435655,1.526848,0.9938076,,,0.1547645,1.632943,0.9848312,,45.7999961295596,41.5715046792486,7.55029153523296
0.8, 21.06,21.06,,,0.1406282,1.528373,0.9933811,,,0.1519157,1.63272,0.984616,,45.7999961295596,41.6233970400238,7.64770454423856
0.811, 20.56,20.56,,,0.1373348,1.530582,0.9929781,,,0.1485423,1.6324,0.9843075,,45.7999961295596,41.5714807735872,7.77238537519936
0.822, 20.29,20.29,,,0.1354486,1.532668,0.9938607,,,0.1465033,1.633152,0.985032,,45.7999961295596,41.4191470687675,7.86059982719622
