経過時間(s),めり込み量(mm),Y軸めり込み量(mm),,デバイス先端,X座標,Y座標,Z座標,,仮想物体との接触位置,X座標,Y座標,Z座標,,接触点の法線と床の法線とのなす角,接触点の法線とデバイスの方向ベクトルのなす角,床の法線とデバイスの方向ベクトルのなす角
0.002, 0.44,-0.44,,,-0.1167386,1.571795,0.9780613,,,-0.1165477,1.570458,0.9798048,,45.8734855478893,29.8617774656128,52.4462105542357
0.01, 1.13,1.13,,,-0.1127115,1.567941,0.9821546,,,-0.1132293,1.57135,0.9777018,,45.8734855478893,29.6103069828437,52.5025118019974
0.021, 2.39,2.39,,,-0.1099512,1.56379,0.9846078,,,-0.1110968,1.571041,0.9751484,,45.8734855478893,29.4055720681698,52.4829945369872
0.032, 3.36,3.36,,,-0.1086586,1.560276,0.9868549,,,-0.1102959,1.570475,0.9735761,,45.8734855478893,29.2947044406474,52.4331683083785
0.043, 4.24,4.24,,,-0.106791,1.557266,0.9883968,,,-0.1088858,1.57013,0.9716957,,45.8734855478893,29.1783009449566,52.3630461732159
0.054, 5.07,5.07,,,-0.1059806,1.553575,0.9897656,,,-0.1085017,1.569017,0.9697938,,45.8734855478893,29.102909318996,52.2608767913594
0.065, 5.62,5.62,,,-0.1055539,1.550374,0.9897177,,,-0.1083356,1.567541,0.967616,,45.8734855478893,29.0642026380467,52.1320935781425
0.076, 6.1,6.1,,,-0.105845,1.546997,0.989496,,,-0.1088391,1.56568,0.965582,,45.8734855478893,29.0227912022612,51.9681827030018
0.087, 6.46,6.46,,,-0.1064559,1.54364,0.9885936,,,-0.1095761,1.563488,0.9633309,,45.8734855478893,29.0252056740657,51.8070995260987
0.098, 6.79,6.79,,,-0.1071336,1.54081,0.9882576,,,-0.1104072,1.561698,0.9617215,,45.8734855478893,29.0093562205377,51.7533903350549
0.11, 7.3,7.3,,,-0.1068226,1.538228,0.9888332,,,-0.1103698,1.560692,0.9603126,,45.8734855478893,28.9630646147261,51.7399860891818
0.12, 7.52,7.52,,,-0.1075821,1.53615,0.9887491,,,-0.1112811,1.55932,0.9593534,,45.8734855478893,28.8975016307076,51.7250416356937
0.131, 7.77,7.77,,,-0.1080359,1.534207,0.9886975,,,-0.1118707,1.558137,0.9583302,,45.8734855478893,28.8829977244087,51.7337091455092
0.142, 7.85,7.85,,,-0.108066,1.533839,0.988889,,,-0.1119364,1.557982,0.9581848,,45.8734855478893,28.9165271221113,51.7934289028554
0.154, 7.84,7.84,,,-0.1087101,1.533852,0.9893899,,,-0.1125699,1.557885,0.9586864,,45.8734855478893,28.9810143513654,51.9169494554632
0.164, 7.81,7.81,,,-0.1094168,1.533854,0.9898645,,,-0.1132562,1.557759,0.9592003,,45.8734855478893,29.0474686750458,52.0283293471592
0.176, 7.86,7.86,,,-0.1095409,1.534047,0.9906001,,,-0.1133894,1.558069,0.9597561,,45.8734855478893,29.0754622045801,52.0539971973458
0.186, 7.76,7.76,,,-0.1103034,1.534051,0.9905647,,,-0.1140928,1.557796,0.960088,,45.8734855478893,29.0886649598783,52.0420409515364
0.197, 7.82,7.82,,,-0.1112254,1.533483,0.9911292,,,-0.1150102,1.557388,0.9604486,,45.8734855478893,29.1262617351184,52.0375091211482
0.209, 7.8,7.8,,,-0.1124339,1.533488,0.9921987,,,-0.1161562,1.557368,0.9615667,,45.8734855478893,29.1926511720035,52.0165404409798
0.22, 7.85,7.85,,,-0.1139744,1.532916,0.9933674,,,-0.1176903,1.556954,0.9625371,,45.8734855478893,29.2295615132511,52.0086754783694
0.231, 8.01,8.01,,,-0.1138477,1.533051,0.9947311,,,-0.1176481,1.55754,0.9632939,,45.8734855478893,29.2257775885562,52.034865838013
0.242, 8.4,8.4,,,-0.1151423,1.533764,1.000331,,,-0.1191821,1.559356,0.967304,,45.8734855478893,29.2302889283775,52.1853485616191
0.253, 8.8,8.8,,,-0.1158298,1.535745,1.007219,,,-0.120188,1.562402,0.9724625,,45.8734855478893,29.2297732491095,52.4800643859148
0.264, 8.95,8.95,,,-0.1155898,1.539427,1.013177,,,-0.1201118,1.566298,0.9776969,,45.8734855478893,29.2992909125474,52.8356201185493
0.275, 8.85,8.85,,,-0.1166056,1.543463,1.018755,,,-0.1210998,1.569863,0.9835457,,45.8734855478893,29.4124705590396,53.1114504703154
0.287, 8.62,8.62,,,-0.1180209,1.547633,1.023852,,,-0.122382,1.573266,0.9894664,,45.8734855478893,29.5152000163925,53.2683911376021
0.298, 8.42,8.42,,,-0.119326,1.551859,1.029151,,,-0.1235777,1.576861,0.995564,,45.8734855478893,29.5417899420914,53.3063055166298
0.309, 8.18,8.18,,,-0.1210556,1.555866,1.034326,,,-0.1252005,1.580165,1.001691,,45.8734855478893,29.5228532431445,53.3017429503912
0.32, 8.01,8.01,,,-0.122851,1.559807,1.040043,,,-0.1269156,1.583612,1.008105,,45.8734855478893,29.4999277138333,53.2737938170853
0.331, 7.67,7.67,,,-0.124693,1.564217,1.04503,,,-0.1285878,1.587045,1.014458,,45.8734855478893,29.472617203197,53.2247359847368
0.342, 7.41,7.41,,,-0.1264609,1.568785,1.050765,,,-0.1302287,1.590827,1.021255,,45.8734855478893,29.4578981459452,53.2169154183548
0.354, 7.11,7.11,,,-0.1281578,1.574006,1.057019,,,-0.1317877,1.595106,1.028647,,45.8734855478893,29.5009795629362,53.337567291591
0.364, 6.88,6.88,,,-0.1295415,1.579937,1.064492,,,-0.1330935,1.600233,1.036943,,45.8734855478893,29.5777167361259,53.5970666615061
0.376, 6.67,6.67,,,-0.13071,1.586042,1.072132,,,-0.1342072,1.605575,1.045339,,45.8734855478893,29.6466299278391,53.8890606554932
0.386, 6.64,6.64,,,-0.1308658,1.592302,1.080573,,,-0.1344361,1.6116,1.053783,,45.8734855478893,29.6912413071616,54.2236511230538
0.398, 6.66,6.66,,,-0.1308221,1.598269,1.088822,,,-0.1345055,1.617489,1.06188,,45.8734855478893,29.6819317595819,54.4984910974178
0.409, 6.78,6.78,,,-0.1307825,1.603701,1.097275,,,-0.1346389,1.623192,1.069789,,45.8734855478893,29.6215392286212,54.6747168032894
0.42, 6.7,6.7,,,-0.1319652,1.608819,1.104744,,,-0.1358282,1.628023,1.077564,,45.8734855478893,29.5983404917508,54.7795328833757
0.431, 6.64,6.64,,,-0.1329316,1.614081,1.112396,,,-0.1367821,1.633113,1.085457,,45.8734855478893,29.5684310942077,54.7845155062365
0.442, 6.64,6.64,,,-0.133753,1.618535,1.119329,,,-0.1376365,1.637578,1.092398,,45.8734855478893,29.507188204719,54.764585014793
0.453, 6.57,6.57,,,-0.1342895,1.623841,1.126495,,,-0.1381841,1.642658,1.099871,,45.8734855478893,29.4347164845473,54.7871553742773
0.465, 6.53,6.53,,,-0.135192,1.62878,1.133885,,,-0.1391406,1.647466,1.107383,,45.8734855478893,29.3620979153125,54.8623079436236
0.476, 6.57,6.57,,,-0.1359742,1.633976,1.142086,,,-0.140028,1.652701,1.115408,,45.8734855478893,29.3074324978115,54.9940657041413
0.487, 6.34,6.34,,,-0.1373552,1.640119,1.149907,,,-0.1413503,1.658109,1.124103,,45.8734855478893,29.2882294214944,55.1885177693058
0.498, 6.15,6.15,,,-0.1382865,1.646467,1.157825,,,-0.1422266,1.663808,1.132749,,45.8734855478893,29.3078798751897,55.4135827414785
0.509, 5.65,5.65,,,-0.1398018,1.654138,1.16549,,,-0.1434463,1.669952,1.142344,,45.8734855478893,29.457129749685,55.7366677557024
0.52, 5.04,5.04,,,-0.142148,1.661974,1.1732,,,-0.1454034,1.675952,1.152481,,45.8734855478893,29.6419341729153,56.0708620723021
0.531, 4.27,4.27,,,-0.1446208,1.670047,1.180003,,,-0.1473739,1.68179,1.162411,,45.8734855478893,29.809622142562,56.3471295561629
0.542, 3.67,3.67,,,-0.147184,1.67712,1.187125,,,-0.14955,1.68718,1.171935,,45.8734855478893,29.9474553561773,56.5530939048532
0.554, 2.93,2.93,,,-0.1496442,1.68469,1.193575,,,-0.1515325,1.692683,1.181419,,45.8734855478893,30.0609389460791,56.7375329129731
0.564, 2.43,2.43,,,-0.1518175,1.691233,1.200413,,,-0.153392,1.697844,1.190315,,45.8734855478893,30.1026987215025,56.8582462579102
0.576, 1.91,1.91,,,-0.1544213,1.697487,1.207096,,,-0.1556674,1.702664,1.199162,,45.8734855478893,30.1032007403925,56.9454199598613
0.587, 1.49,1.49,,,-0.1560758,1.703912,1.213952,,,-0.1570628,1.70794,1.20775,,45.8734855478893,30.0873000604472,57.0706890408479
0.598, 1.2,1.2,,,-0.1568157,1.71108,1.221941,,,-0.157622,1.714286,1.216961,,45.8734855478893,30.1070222311268,57.3102989004534
0.609, 1.06,1.06,,,-0.1573824,1.71802,1.230795,,,-0.1581117,1.720834,1.226377,,45.8734855478893,30.1433485912166,57.6049874039932
0.62, 0.9,0.9,,,-0.1583331,1.72451,1.239279,,,-0.1589652,1.726899,1.235499,,45.8734855478893,30.1798627815034,57.8244003947849
0.631, 0.56,0.56,,,-0.1597632,1.730683,1.246248,,,-0.1601612,1.732169,1.24388,,45.8734855478893,30.2406480483304,57.9921908172663
0.642, 0.5,0.5,,,-0.1611409,1.735957,1.254266,,,-0.1614958,1.737269,1.252167,,45.8734855478893,30.2626856530742,58.1067945581608
0.654, 0.52,0.52,,,-0.1622502,1.740649,1.261973,,,-0.1626262,1.742021,1.259776,,45.8734855478893,30.2050695939339,58.1447294277554
0.665, 0.79,0.79,,,-0.1629511,1.744584,1.270271,,,-0.1635258,1.746642,1.266975,,45.8734855478893,30.0881640793531,58.1628157681743
0.676, 1.15,1.15,,,-0.163314,1.748341,1.278883,,,-0.1641771,1.751351,1.274047,,45.8734855478893,29.980093414218,58.2544086023953
0.687, 1.59,1.59,,,-0.163022,1.752239,1.287678,,,-0.1642554,1.756386,1.28099,,45.8734855478893,29.8204104260558,58.3804938909651
0.698, 1.92,1.92,,,-0.1629698,1.756171,1.295828,,,-0.1645026,1.76116,1.287745,,45.8734855478893,29.6978734206611,58.5195770291638
経過時間(s),めり込み量(mm),Y軸めり込み量(mm),,デバイス先端,X座標,Y座標,Z座標,,仮想物体との接触位置,X座標,Y座標,Z座標,,接触点の法線と床の法線とのなす角,接触点の法線とデバイスの方向ベクトルのなす角,床の法線とデバイスの方向ベクトルのなす角
0, 0.69,-0.69,,,-0.1142765,1.548843,0.9423952,,,-0.1141021,1.546907,0.9452522,,45.8734855478893,33.3426944867853,55.6848129609666
0.011, 0.82,0.82,,,-0.114086,1.543555,0.9474022,,,-0.114301,1.545859,0.9440211,,45.8734855478893,33.1716528943495,55.5452653699173
0.022, 1.96,1.96,,,-0.1148313,1.539737,0.9523165,,,-0.1153566,1.545245,0.9442401,,45.8734855478893,33.0955065325066,55.5146900289486
0.033, 2.92,2.92,,,-0.1152006,1.537064,0.956935,,,-0.1159924,1.545257,0.9448931,,45.8734855478893,33.0965959476489,55.5752259938779
0.044, 3.56,3.56,,,-0.1159803,1.535996,0.9615321,,,-0.1169404,1.545947,0.9467816,,45.8734855478893,33.2357986141547,55.8004412302081
0.055, 4.27,4.27,,,-0.1166418,1.534115,0.9654025,,,-0.1177896,1.545979,0.9476742,,45.8734855478893,33.357434034604,56.0151516358872
0.066, 4.71,4.71,,,-0.1175776,1.533792,0.969421,,,-0.1188238,1.546783,0.9498051,,45.8734855478893,33.5454042504266,56.2880894026203
0.077, 5.21,5.21,,,-0.1183646,1.532822,0.9728379,,,-0.1197286,1.547068,0.9510983,,45.8734855478893,33.7184983146509,56.5641451506227
0.088, 5.9,5.9,,,-0.118542,1.53137,0.976706,,,-0.1201195,1.547439,0.9519941,,45.8734855478893,33.7804105626596,56.7705978578251
0.1, 6.72,6.72,,,-0.1187842,1.529417,0.9809954,,,-0.12066,1.547645,0.9528155,,45.8734855478893,33.7417243722772,56.9116378451664
0.111, 7.37,7.37,,,-0.1190243,1.527959,0.9845917,,,-0.1211692,1.547886,0.9536537,,45.8734855478893,33.6889611624071,57.0269997370377
0.122, 8.05,8.05,,,-0.1187635,1.527159,0.9887953,,,-0.1211911,1.548851,0.9549911,,45.8734855478893,33.641467443335,57.129592590611
0.133, 8.59,8.59,,,-0.1188626,1.526409,0.9923155,,,-0.1215081,1.549506,0.9562014,,45.8734855478893,33.6292721409114,57.2186855756654
0.144, 9.12,9.12,,,-0.1190386,1.525585,0.9957619,,,-0.1218995,1.550083,0.9573792,,45.8734855478893,33.6065139512302,57.2747204460569
0.155, 9.62,9.62,,,-0.1192725,1.525373,0.9998014,,,-0.1223367,1.551174,0.9593033,,45.8734855478893,33.5869420447081,57.3244647123978
0.166, 10.05,10.05,,,-0.1190419,1.524866,1.002378,,,-0.1222725,1.551812,0.9601089,,45.8734855478893,33.5481397411131,57.3102374287526
0.178, 10.43,10.43,,,-0.1194242,1.523907,1.004647,,,-0.1228085,1.551932,0.9608083,,45.8734855478893,33.4787040399429,57.2383189538883
0.189, 10.49,10.49,,,-0.1197728,1.523331,1.004768,,,-0.1231336,1.551619,0.9607077,,45.8734855478893,33.4561029446083,57.1243674960413
0.199, 10.63,10.63,,,-0.11998,1.523061,1.005745,,,-0.123358,1.551762,0.9611267,,45.8734855478893,33.4528073784255,57.0737523806054
0.21, 10.62,10.62,,,-0.1206664,1.523097,1.006358,,,-0.1240303,1.551759,0.9617945,,45.8734855478893,33.4635854166358,57.0767337580952
0.222, 10.87,10.87,,,-0.120584,1.522664,1.007723,,,-0.1240384,1.551978,0.9621007,,45.8734855478893,33.4680352847563,57.1032724573768
0.233, 11.03,11.03,,,-0.1210155,1.522805,1.009701,,,-0.1245469,1.552543,0.9633807,,45.8734855478893,33.4583808126331,57.1254569111836
0.244, 11.12,11.12,,,-0.1215519,1.522819,1.010952,,,-0.125121,1.552785,0.9642841,,45.8734855478893,33.4466602083435,57.1215739487485
0.256, 11.07,11.07,,,-0.1216549,1.523424,1.01153,,,-0.1251967,1.553284,0.9650403,,45.8734855478893,33.454156340749,57.1134255332955
0.266, 11.12,11.12,,,-0.1218649,1.52341,1.012071,,,-0.1253925,1.553399,0.9653927,,45.8734855478893,33.4753435869648,57.1059806273073
0.277, 10.99,10.99,,,-0.1226849,1.524016,1.012618,,,-0.1261425,1.553656,0.9664929,,45.8734855478893,33.4966127954484,57.0989011364296
0.289, 11.06,11.06,,,-0.1227043,1.523973,1.013193,,,-0.1261826,1.55382,0.9667569,,45.8734855478893,33.4951682104791,57.0919924002764
0.299, 11.15,11.15,,,-0.1225343,1.524375,1.014321,,,-0.1260629,1.554479,0.9675349,,45.8734855478893,33.4606620957524,57.0662596632945
0.311, 11.09,11.09,,,-0.1228956,1.524892,1.014939,,,-0.1264394,1.554842,0.9684068,,45.8734855478893,33.4269824338923,57.059446549787
0.322, 11.05,11.05,,,-0.1227128,1.526239,1.016297,,,-0.1262701,1.556071,0.9699127,,45.8734855478893,33.4162556220993,57.0804152299554
0.333, 10.95,10.95,,,-0.1232419,1.526958,1.017004,,,-0.1267789,1.556511,0.9710222,,45.8734855478893,33.4160677919024,57.0979858911063
0.344, 10.83,10.83,,,-0.1231636,1.528289,1.017712,,,-0.1266708,1.55749,0.9722487,,45.8734855478893,33.4160643768079,57.1153004201705
0.355, 10.81,10.81,,,-0.1231386,1.528895,1.018326,,,-0.1266416,1.558033,0.9729594,,45.8734855478893,33.4137626031216,57.1164103258797
0.366, 10.78,10.78,,,-0.1231459,1.529461,1.018904,,,-0.1266396,1.558536,0.9736434,,45.8734855478893,33.4119696785144,57.1112603633888
0.377, 10.66,10.66,,,-0.123145,1.530619,1.019472,,,-0.1265986,1.559367,0.9747348,,45.8734855478893,33.4075539613389,57.1032246460539
0.388, 10.51,10.51,,,-0.1231007,1.532463,1.020715,,,-0.1265112,1.560803,0.9766051,,45.8734855478893,33.4048184706524,57.1077394009697
0.4, 10.34,10.34,,,-0.1235344,1.535107,1.023344,,,-0.1269121,1.562957,0.9799427,,45.8734855478893,33.4019327158084,57.1412722137667
0.411, 10.19,10.19,,,-0.1238028,1.537775,1.026035,,,-0.1271745,1.565186,0.9832438,,45.8734855478893,33.3877805642419,57.1892474611618
0.422, 10.09,10.09,,,-0.1236915,1.542014,1.030901,,,-0.1271197,1.569069,0.9884828,,45.8734855478893,33.3663406010339,57.3050464851278
0.433, 9.88,9.88,,,-0.1248755,1.546529,1.036538,,,-0.1283134,1.572924,0.9949324,,45.8734855478893,33.3683008652711,57.4476061895173
0.445, 9.7,9.7,,,-0.1258599,1.550536,1.041515,,,-0.1292678,1.576369,1.000583,,45.8734855478893,33.4156238296187,57.5839777426908
0.455, 9.36,9.36,,,-0.127491,1.554978,1.046362,,,-0.1308037,1.579822,1.006827,,45.8734855478893,33.4531898690084,57.6943877475517
0.466, 9.19,9.19,,,-0.1290428,1.55934,1.052395,,,-0.1323262,1.583647,1.013564,,45.8734855478893,33.4767847568396,57.7960551105181
0.477, 9.04,9.04,,,-0.1303573,1.563776,1.058538,,,-0.1336469,1.587613,1.020292,,45.8734855478893,33.4807496815424,57.9124142099805
0.489, 8.79,8.79,,,-0.1325485,1.569624,1.066726,,,-0.1358451,1.592727,1.029462,,45.8734855478893,33.4575133786327,58.0531229331564
0.5, 8.8,8.8,,,-0.1341915,1.57488,1.075674,,,-0.1376468,1.59791,1.038329,,45.8734855478893,33.3732493371871,58.1998080716897
0.511, 8.96,8.96,,,-0.13603,1.579946,1.085814,,,-0.1397498,1.6033,1.047781,,45.8734855478893,33.2259221608897,58.3205316619102
0.522, 9.31,9.31,,,-0.1363487,1.585294,1.096566,,,-0.1405303,1.60951,1.057027,,45.8734855478893,32.952485790361,58.4066808355143
0.533, 9.62,9.62,,,-0.1369037,1.590731,1.107293,,,-0.1415211,1.615686,1.066437,,45.8734855478893,32.7109156665183,58.4970442357189
0.544, 9.54,9.54,,,-0.1386078,1.597494,1.117574,,,-0.1433455,1.622109,1.077018,,45.8734855478893,32.6540270225043,58.6682565828792
0.555, 9.14,9.14,,,-0.1412565,1.605705,1.128003,,,-0.145779,1.629128,1.089021,,45.8734855478893,32.828524690564,58.9206320656882
0.566, 8.67,8.67,,,-0.1444649,1.614257,1.138871,,,-0.1487416,1.636337,1.101812,,45.8734855478893,32.9732154139151,59.1320605655624
0.578, 8.55,8.55,,,-0.1470764,1.621911,1.150911,,,-0.1513445,1.643584,1.114295,,45.8734855478893,33.0221912839958,59.2993182333033
0.589, 8.71,8.71,,,-0.1492782,1.628498,1.163506,,,-0.1537852,1.650508,1.126175,,45.8734855478893,32.9192705813515,59.4096462758964
0.6, 9.18,9.18,,,-0.1500142,1.634621,1.176611,,,-0.1550224,1.657764,1.137304,,45.8734855478893,32.6859069295682,59.4661319387605
0.611, 9.72,9.72,,,-0.1515102,1.640047,1.190223,,,-0.1570751,1.664533,1.148585,,45.8734855478893,32.4668012972806,59.5152341673374
0.622, 10.56,10.56,,,-0.152442,1.643954,1.203633,,,-0.1587583,1.670531,1.158445,,45.8734855478893,32.2344860795057,59.5328628850946
0.633, 11.41,11.41,,,-0.1533445,1.647703,1.21694,,,-0.1604656,1.676412,1.168171,,45.8734855478893,31.9882543516842,59.5325555265905
0.644, 12.43,12.43,,,-0.1535039,1.650976,1.230339,,,-0.1616068,1.68222,1.177229,,45.8734855478893,31.7538934923098,59.5724711509893
0.656, 13.48,13.48,,,-0.1540157,1.653934,1.243945,,,-0.1632186,1.687723,1.186344,,45.8734855478893,31.5297779164053,59.671010287403
0.666, 14.61,14.61,,,-0.1537874,1.657017,1.257627,,,-0.1642298,1.693477,1.1952,,45.8734855478893,31.3196232467759,59.8096904444518
0.678, 15.48,15.48,,,-0.1541763,1.660497,1.270192,,,-0.1656216,1.698905,1.203991,,45.8734855478893,31.2138919213663,59.9975206414003
0.689, 16.26,16.26,,,-0.1545594,1.664113,1.282106,,,-0.1668649,1.704218,1.212477,,45.8734855478893,31.1827155237673,60.1923995933761
0.7, 16.73,16.73,,,-0.1562431,1.667736,1.292679,,,-0.1690612,1.708794,1.220912,,45.8734855478893,31.2157770535248,60.3663781670733
0.711, 17.26,17.26,,,-0.1577198,1.670963,1.302953,,,-0.1710161,1.713191,1.228862,,45.8734855478893,31.2411375452073,60.4618983599578
0.723, 17.68,17.68,,,-0.1601051,1.672964,1.311604,,,-0.1737364,1.716227,1.235721,,45.8734855478893,31.2303560919025,60.4552594162693
0.733, 18.35,18.35,,,-0.1608941,1.675199,1.321158,,,-0.1752674,1.720019,1.242421,,45.8734855478893,31.1497291260887,60.5062536071936
0.744, 18.91,18.91,,,-0.1616849,1.677816,1.33041,,,-0.1768726,1.723834,1.249228,,45.8734855478893,31.0513880651555,60.6285959522023
0.755, 19.39,19.39,,,-0.1617976,1.680588,1.338527,,,-0.1777729,1.727565,1.255215,,45.8734855478893,30.9657272500635,60.7780199965166
0.767, 19.82,19.82,,,-0.1625941,1.682796,1.345947,,,-0.1791658,1.730584,1.260723,,45.8734855478893,30.9548877401523,60.9253061916802
0.778, 20.04,20.04,,,-0.1637161,1.685615,1.352704,,,-0.1806376,1.733718,1.266468,,45.8734855478893,30.9715294956019,61.0596628391047
0.789, 20.31,20.31,,,-0.1647477,1.687497,1.358678,,,-0.1820958,1.736131,1.271216,,45.8734855478893,30.945100079344,61.1456549183622
0.8, 20.63,20.63,,,-0.1651462,1.688905,1.36378,,,-0.1829647,1.738259,1.274986,,45.8734855478893,30.8706407741792,61.1663162400265
