経過時間(s),めり込み量(mm),Y軸めり込み量(mm),,デバイス先端,X座標,Y座標,Z座標,,仮想物体との接触位置,X座標,Y座標,Z座標,,接触点の法線と床の法線とのなす角,接触点の法線とデバイスの方向ベクトルのなす角,床の法線とデバイスの方向ベクトルのなす角
0.001, 0.71,-0.71,,,0.3803301,1.650532,1.265379,,,0.377838,1.648015,1.265517,,45.0005395849294,2.23773383436564,44.7475528002067
0.011, 0.34,-0.34,,,0.3784677,1.649796,1.265666,,,0.3772689,1.648584,1.265731,,45.0005395849294,2.19695440450428,44.7285956106929
0.022, 0.01,0.01,,,0.3770486,1.648708,1.265433,,,0.3770967,1.648757,1.26543,,45.0005395849294,2.16238425675591,44.7553767816833
0.033, 0.28,0.28,,,0.3757334,1.648117,1.265234,,,0.3767302,1.649123,1.265182,,45.0005395849294,2.13239865991692,44.7661001783818
0.044, 0.82,0.82,,,0.3738908,1.646159,1.265568,,,0.376779,1.649074,1.265419,,45.0005395849294,2.08975288091679,44.7604345366229
0.055, 1.09,1.09,,,0.3733112,1.644805,1.265383,,,0.3771611,1.648692,1.265188,,45.0005395849294,2.0598507404494,44.7516543286892
0.066, 1.46,1.46,,,0.37209,1.643457,1.265741,,,0.3772183,1.648635,1.265486,,45.0005395849294,2.02081044745706,44.7452646868984
0.077, 1.64,1.64,,,0.3713822,1.642886,1.265574,,,0.3771484,1.648705,1.265292,,45.0005395849294,1.99223208299135,44.7631836876873
0.089, 1.99,1.99,,,0.3700235,1.641789,1.26547,,,0.3770159,1.648837,1.265131,,45.0005395849294,1.9720900691329,44.7929872173013
0.1, 2.41,2.41,,,0.3685779,1.640217,1.265414,,,0.3770818,1.648772,1.265005,,45.0005395849294,1.95414545513533,44.8512179934499
0.112, 2.75,2.75,,,0.3670387,1.639382,1.265371,,,0.37674,1.649113,1.264907,,45.0005395849294,1.93815598273328,44.9327636196814
0.124, 3.27,3.27,,,0.3646198,1.638152,1.265679,,,0.3761682,1.649685,1.26514,,45.0005395849294,1.89072288158843,45.0570662289274
0.133, 3.81,3.81,,,0.3622343,1.636667,1.264952,,,0.3757399,1.650113,1.264358,,45.0005395849294,1.79078441020749,45.1437037610436
0.144, 4.22,4.22,,,0.3604659,1.635583,1.263207,,,0.3754191,1.650434,1.26261,,45.0005395849294,1.63410542453609,45.2083822355892
0.155, 4.71,4.71,,,0.3589503,1.633608,1.262155,,,0.3756592,1.650194,1.261551,,45.0005395849294,1.48450817089816,45.221380085218
0.166, 4.93,4.93,,,0.358026,1.632947,1.26123,,,0.3755405,1.650313,1.260656,,45.0005395849294,1.35494140693924,45.2517505205173
0.177, 5.04,5.04,,,0.3569107,1.633298,1.260002,,,0.3748359,1.651017,1.259455,,45.0005395849294,1.28679191573141,45.3365507317978
0.188, 5.02,5.02,,,0.3555515,1.634818,1.259258,,,0.3734429,1.65241,1.258718,,45.0005395849294,1.32322990672239,45.4887136818931
0.2, 4.88,4.88,,,0.3547857,1.636541,1.258867,,,0.3722486,1.653605,1.258326,,45.0005395849294,1.43203823226741,45.6689418785069
0.211, 4.66,4.66,,,0.3535473,1.639359,1.258573,,,0.3702601,1.655593,1.258039,,45.0005395849294,1.55507053308487,45.8393926595959
0.222, 4.55,4.55,,,0.3523907,1.641307,1.258577,,,0.3687388,1.657115,1.258055,,45.0005395849294,1.62942823918866,45.9704639861211
0.233, 4.37,4.37,,,0.3504795,1.644461,1.258161,,,0.3662317,1.659622,1.25768,,45.0005395849294,1.66917748445278,46.1030721051667
0.244, 4.29,4.29,,,0.3477415,1.647781,1.256871,,,0.363239,1.662614,1.256433,,45.0005395849294,1.71566182965964,46.2586262440905
0.255, 4.13,4.13,,,0.3442421,1.652425,1.255363,,,0.3591961,1.666657,1.25498,,45.0005395849294,1.76989897296725,46.4190571379459
0.266, 3.79,3.79,,,0.3410155,1.658043,1.254082,,,0.3547674,1.671086,1.253754,,45.0005395849294,1.81002419879037,46.5174186894461
0.277, 3.36,3.36,,,0.3381105,1.663962,1.252443,,,0.3503227,1.675531,1.252163,,45.0005395849294,1.82144918396317,46.5528127287402
0.288, 2.95,2.95,,,0.3351662,1.669857,1.251708,,,0.3458467,1.680007,1.25146,,45.0005395849294,1.74932356227368,46.4616399511414
0.299, 2.62,2.62,,,0.3319651,1.675403,1.251852,,,0.3414168,1.684436,1.251621,,45.0005395849294,1.64532422337905,46.2994844345685
0.31, 2.28,2.28,,,0.3285208,1.681203,1.252278,,,0.3367347,1.689119,1.252059,,45.0005395849294,1.52879917166883,46.0631325751065
0.322, 1.87,1.87,,,0.324921,1.687714,1.25247,,,0.3316276,1.694226,1.252281,,45.0005395849294,1.43531416165691,45.8516767544763
0.333, 1.47,1.47,,,0.3199774,1.695464,1.252961,,,0.3252416,1.700612,1.25281,,45.0005395849294,1.33764427351264,45.643871669856
0.344, 1.1,1.1,,,0.3143464,1.703717,1.252407,,,0.3182688,1.707585,1.252297,,45.0005395849294,1.20998387933105,45.4096883953951
0.355, 0.64,0.64,,,0.3088343,1.712527,1.252054,,,0.3110862,1.714767,1.251991,,45.0005395849294,1.14739490900481,45.1534538558124
0.366, 0.25,0.25,,,0.3028646,1.721253,1.251933,,,0.3037306,1.722123,1.251908,,45.0005395849294,1.17951952893325,44.8689423338528
0.378, 0.25,-0.25,,,0.2967707,1.730825,1.252564,,,0.2959054,1.729948,1.25259,,45.0005395849294,1.2822215588085,44.6262179080725
0.389, 0.74,-0.74,,,0.2891153,1.741968,1.252378,,,0.2865261,1.739327,1.252459,,45.0005395849294,1.37828187023096,44.4396103149514
0.4, 1.14,-1.14,,,0.2813516,1.752529,1.251954,,,0.27739,1.748463,1.252078,,45.0005395849294,1.46058735498655,44.2622747033706
0.41, 1.51,-1.51,,,0.2733922,1.763136,1.252077,,,0.2681499,1.757704,1.252241,,45.0005395849294,1.61386074439953,43.9845694647295
0.422, 1.7,-1.7,,,0.2651463,1.772737,1.25223,,,0.2592749,1.766578,1.252415,,45.0005395849294,1.84864443516045,43.6392931665098
0.433, 1.78,-1.78,,,0.2562058,1.782221,1.251619,,,0.2501227,1.775731,1.25181,,45.0005395849294,2.22307945046576,43.1521162771372
0.444, 1.76,-1.76,,,0.2468884,1.791363,1.250835,,,0.240951,1.784902,1.251018,,45.0005395849294,2.69725763643587,42.5881919692915
0.455, 1.64,-1.64,,,0.2374788,1.799949,1.250444,,,0.2319923,1.793861,1.250607,,45.0005395849294,3.18303070852965,42.0331947184425
0.466, 1.42,-1.42,,,0.2275004,1.808367,1.249091,,,0.2228045,1.803049,1.24922,,45.0005395849294,3.70612713486094,41.4471030322624
0.477, 1.12,-1.12,,,0.217641,1.816097,1.248397,,,0.2139841,1.811869,1.248489,,45.0005395849294,4.25261482401449,40.8563121760641
0.489, 0.89,-0.89,,,0.2089076,1.823242,1.24764,,,0.2060258,1.819827,1.247705,,45.0005395849294,4.91206914314141,40.161364353016
0.5, 0.5,-0.5,,,0.2001408,1.829202,1.247539,,,0.1985683,1.827285,1.247571,,45.0005395849294,5.68854594383536,39.3596231101721
0.511, 0.07,0.07,,,0.1916601,1.833677,1.246906,,,0.1918884,1.833965,1.246902,,45.0005395849294,6.6570244793973,38.3746552177521
0.522, 0.62,0.62,,,0.1841097,1.837433,1.246536,,,0.1859751,1.839878,1.246504,,45.0005395849294,7.6798175315014,37.3438874931271
0.533, 0.94,0.94,,,0.1772898,1.842,1.247263,,,0.1800709,1.845783,1.247213,,45.0005395849294,8.69519940167545,36.3275929389506
0.544, 1.4,1.4,,,0.1700428,1.846052,1.248384,,,0.1740881,1.851765,1.248298,,45.0005395849294,9.72257337615103,35.3040105731325
0.555, 1.85,1.85,,,0.1633596,1.849624,1.248751,,,0.1685781,1.857275,1.248628,,45.0005395849294,10.7313000809377,34.2978998307252
0.566, 2.39,2.39,,,0.1560207,1.853278,1.248863,,,0.1625818,1.863271,1.248696,,45.0005395849294,11.7412485357782,33.2889238240407
0.578, 3.03,3.03,,,0.1494984,1.855437,1.248515,,,0.1576103,1.868243,1.248308,,45.0005395849294,12.6727514164104,32.3539529149539
0.588, 1.83,1.83,,,0.1416684,1.857676,1.248289,,,0.1464244,1.865495,1.248178,,45.0005259245515,76.3147601522221,31.3157334541518
0.6, 2.37,-2.37,,,0.135061,1.858411,1.248402,,,0.1290937,1.848164,1.248534,,45.0005259245515,75.214403047175,30.2149665377658
0.611, 5.08,-5.08,,,0.1289345,1.857863,1.249087,,,0.1165852,1.835655,1.249372,,45.0005259245515,74.0788226575582,29.0794920160783
0.622, 6.71,-6.71,,,0.1234057,1.856368,1.250682,,,0.10766,1.82673,1.251082,,45.0005259245515,72.981559628119,27.9826490432613
0.633, 8.59,-8.59,,,0.1173339,1.855189,1.252031,,,0.09785484,1.816925,1.252479,,45.0005259245515,71.9799670557218,26.9804110180055
0.644, 10.49,-10.49,,,0.1100383,1.853178,1.25207,,,0.08699626,1.806067,1.252467,,45.0005259245515,71.0636562229283,26.0632634870619
0.655, 12.38,-12.38,,,0.1026147,1.851366,1.25148,,,0.07629172,1.795362,1.251775,,45.0005259245515,70.1745227120859,25.1740394762156
0.666, 14.19,-14.19,,,0.09442732,1.848989,1.24968,,,0.06523912,1.784309,1.249741,,45.0005259245515,69.2881554277804,24.2888896730958
0.677, 15.21,-15.21,,,0.08623872,1.845077,1.247892,,,0.05617271,1.775243,1.247683,,45.0005259245515,68.2937208934343,23.2971530633967
0.689, 14.21,-14.21,,,0.08022398,1.838463,1.246292,,,0.05353844,1.772609,1.245868,,45.0005259245515,67.0591778956871,22.0665886507303
0.699, 12.65,-12.65,,,0.07582594,1.831672,1.245775,,,0.05345304,1.772523,1.245337,,45.0005259245515,65.7195524404834,20.728902969197
0.71, 9.92,-9.92,,,0.07269196,1.82237,1.247391,,,0.05642316,1.775493,1.247083,,45.0005259245515,64.1401668615168,19.1491058713443
0.722, 6.97,-6.97,,,0.07097673,1.812764,1.249408,,,0.06045117,1.779521,1.249245,,45.0005259245515,62.56935316972,17.5766017077749
0.733, 4.51,-4.51,,,0.06849516,1.802986,1.25158,,,0.06226408,1.781334,1.251515,,45.0005259245515,61.0550934426771,16.0603151221522
0.744, 2.11,-2.11,,,0.06590746,1.792499,1.252555,,,0.06324241,1.782313,1.252529,,45.0005259245515,59.6609425888465,14.6660208343531
0.756, 0.54,-0.54,,,0.06178021,1.782859,1.253459,,,0.06115746,1.780228,1.25345,,45.0005259245515,58.314145435214,13.3215246006332
0.766, 0.81,0.81,,,0.05656449,1.772514,1.25228,,,0.05741835,1.776489,1.252306,,45.0005259245515,57.1242684583011,12.1390310580077
0.778, 1.91,1.91,,,0.05082196,1.762336,1.250035,,,0.05264566,1.771716,1.250145,,45.0005259245515,56.0056542581106,11.0407375238061
0.788, 2.81,2.81,,,0.04465314,1.752301,1.246223,,,0.04707933,1.766149,1.246488,,45.0005259245515,54.9447688151785,10.0258559649748
0.8, 3.7,3.7,,,0.03890567,1.742603,1.243547,,,0.04177939,1.76085,1.244017,,45.0005259245515,53.963547281414,9.11065418411685
0.811, 4.34,4.34,,,0.03267642,1.733332,1.242068,,,0.03571847,1.754789,1.242739,,45.0005259245515,53.0900070920129,8.31809954545092
0.822, 4.91,4.91,,,0.02717782,1.724983,1.24074,,,0.03025161,1.749322,1.241558,,45.0005259245515,52.2226243179772,7.51366037795989
0.833, 5.65,5.65,,,0.02213622,1.716283,1.240653,,,0.02526999,1.74434,1.241625,,45.0005259245515,51.4000851496893,6.74828562256603
0.844, 6.14,6.14,,,0.01627118,1.707797,1.240913,,,0.01925361,1.738324,1.241974,,45.0005259245515,50.6080735110473,6.00844467490008
0.855, 6.53,6.53,,,0.01014769,1.699416,1.240882,,,0.0128839,1.731954,1.242027,,45.0005259245515,49.8366036657624,5.31009584462686
経過時間(s),めり込み量(mm),Y軸めり込み量(mm),,デバイス先端,X座標,Y座標,Z座標,,仮想物体との接触位置,X座標,Y座標,Z座標,,接触点の法線と床の法線とのなす角,接触点の法線とデバイスの方向ベクトルのなす角,床の法線とデバイスの方向ベクトルのなす角
0.001, 0.77,-0.77,,,0.4115774,1.619553,1.261768,,,0.4095312,1.616322,1.261911,,45.0005395849294,12.8275217911488,32.3965493885273
0.011, 0.38,-0.38,,,0.4116298,1.616846,1.261222,,,0.4106131,1.61524,1.26129,,45.0005395849294,12.8251064655707,32.3804540481961
0.022, 0.04,-0.04,,,0.4114535,1.61467,1.260832,,,0.4113486,1.614505,1.260838,,45.0005395849294,12.6768606288555,32.5000984685578
0.033, 0.39,0.39,,,0.4105781,1.612557,1.259786,,,0.4116385,1.614215,1.259726,,45.0005395849294,12.5153898387279,32.6341238518168
0.044, 0.64,0.64,,,0.410282,1.61116,1.259536,,,0.4120092,1.613844,1.259445,,45.0005395849294,12.342037081096,32.7863243679514
0.056, 0.94,0.94,,,0.4104507,1.608909,1.259666,,,0.4129985,1.612855,1.25954,,45.0005395849294,12.2445958975608,32.871612937744
0.067, 1.12,1.12,,,0.4102869,1.607798,1.259587,,,0.4133382,1.612515,1.259438,,45.0005395849294,12.1983444191095,32.9151724679636
0.078, 1.22,1.22,,,0.4101831,1.60726,1.259543,,,0.4134881,1.612365,1.259382,,45.0005395849294,12.177898248398,32.9346419216509
0.088, 1.22,1.22,,,0.409443,1.607995,1.258966,,,0.4127509,1.613103,1.258804,,45.0005395849294,12.1652316629347,32.9490638656821
0.1, 1.22,1.22,,,0.4093488,1.608073,1.258959,,,0.4126638,1.61319,1.258797,,45.0005395849294,12.1536715680862,32.9609859605466
0.112, 1.3,1.3,,,0.4087628,1.608073,1.259011,,,0.4123083,1.613545,1.258837,,45.0005395849294,12.1562824078238,32.9594799038765
0.122, 1.47,1.47,,,0.4082838,1.607402,1.259145,,,0.4122804,1.613573,1.258946,,45.0005395849294,12.1694441819881,32.9485413562251
0.133, 1.64,1.64,,,0.40783,1.606689,1.259838,,,0.4122833,1.61357,1.259616,,45.0005395849294,12.187073753519,32.9319098460589
0.144, 2,2,,,0.4061451,1.605905,1.259716,,,0.4115646,1.614289,1.259448,,45.0005395849294,12.2153200000455,32.900538788074
0.155, 2.48,2.48,,,0.4043272,1.604408,1.260262,,,0.4110434,1.61481,1.25995,,45.0005395849294,12.2341252178546,32.8672006356629
0.167, 3.39,3.39,,,0.4002091,1.602241,1.259607,,,0.4093938,1.61646,1.259259,,45.0005395849294,12.1946262349835,32.871787107563
0.177, 3.83,3.83,,,0.396946,1.602443,1.259506,,,0.4073606,1.618493,1.259176,,45.0005395849294,12.0610089555161,32.9848677163149
0.188, 4.24,4.24,,,0.3930019,1.603514,1.259909,,,0.404584,1.621269,1.259586,,45.0005395849294,11.9143272320773,33.1211914581657
0.199, 4.55,4.55,,,0.3896642,1.60471,1.260007,,,0.4021282,1.623725,1.259685,,45.0005395849294,11.7829468395008,33.2477787656255
0.211, 4.91,4.91,,,0.3853841,1.606445,1.260549,,,0.3988811,1.626972,1.260197,,45.0005395849294,11.7024684302974,33.3290477692034
0.221, 5.19,5.19,,,0.3813622,1.608542,1.261028,,,0.3956344,1.630219,1.260659,,45.0005395849294,11.6664998013553,33.364745751907
0.233, 5.57,5.57,,,0.3768502,1.610403,1.261159,,,0.3921775,1.633676,1.26079,,45.0005395849294,11.6559403291923,33.3708109597212
0.244, 5.98,5.98,,,0.3717628,1.612665,1.261422,,,0.388205,1.637648,1.261091,,45.0005395849294,11.6670914664757,33.3510512230023
0.255, 6.21,6.21,,,0.3671668,1.615694,1.261204,,,0.3842338,1.64162,1.260917,,45.0005395849294,11.6550950933061,33.3571608270448
0.267, 6.42,6.42,,,0.3611833,1.620178,1.261829,,,0.3788604,1.646993,1.261568,,45.0005395849294,11.6154202330688,33.3937501494104
0.277, 6.6,6.6,,,0.3551151,1.624982,1.262502,,,0.3733235,1.65253,1.262216,,45.0005395849294,11.5469330743933,33.4637015298485
0.288, 6.6,6.6,,,0.3489443,1.631176,1.263993,,,0.3671769,1.658676,1.263668,,45.0005395849294,11.4698543917546,33.5443831371741
0.3, 6.59,6.59,,,0.3421748,1.638008,1.265577,,,0.3604123,1.665441,1.265203,,45.0005395849294,11.4021117236779,33.6175310460548
0.31, 6.58,6.58,,,0.3349413,1.645289,1.266459,,,0.3531761,1.672677,1.266041,,45.0005395849294,11.367597071215,33.6574637459261
0.322, 6.67,6.67,,,0.3273325,1.652255,1.26767,,,0.3458194,1.680034,1.267226,,45.0005395849294,11.3810687652043,33.6465354435582
0.333, 6.69,6.69,,,0.3199251,1.659578,1.268686,,,0.338421,1.687432,1.268236,,45.0005395849294,11.4410173338813,33.5871162145271
0.344, 6.54,6.54,,,0.312505,1.668045,1.268858,,,0.3305505,1.695303,1.268429,,45.0005395849294,11.5183043372838,33.5083743808718
0.355, 6.46,6.46,,,0.3044186,1.676687,1.269362,,,0.3222159,1.703637,1.268917,,45.0005395849294,11.5869409063433,33.4424528119319
0.367, 6.18,6.18,,,0.2970304,1.686041,1.270962,,,0.3140212,1.711832,1.27048,,45.0005395849294,11.6573089283092,33.3808547526162
0.378, 5.97,5.97,,,0.2891278,1.69537,1.272722,,,0.3055235,1.72033,1.27219,,45.0005395849294,11.7434137056849,33.3070306550265
0.388, 5.68,5.68,,,0.2818207,1.70469,1.27381,,,0.2973902,1.728463,1.273243,,45.0005395849294,11.8327636765997,33.2309184441285
0.399, 5.6,5.6,,,0.2733267,1.713816,1.275074,,,0.2886112,1.737242,1.274487,,45.0005395849294,11.9369027142033,33.1335404398414
0.411, 5.35,5.35,,,0.2656256,1.723234,1.275932,,,0.2801842,1.745669,1.275371,,45.0005395849294,12.0785010694938,32.9912197920663
0.421, 5.2,5.2,,,0.2573869,1.732522,1.276613,,,0.2714806,1.754373,1.27608,,45.0005395849294,12.2345119773056,32.8313011623843
0.433, 5.13,5.13,,,0.2490727,1.741339,1.277483,,,0.262923,1.76293,1.276955,,45.0005395849294,12.3761333844839,32.6894791184047
0.444, 4.97,4.97,,,0.2400907,1.751476,1.277868,,,0.2534477,1.772406,1.277346,,45.0005395849294,12.5122223385884,32.5559489238468
0.455, 4.97,4.97,,,0.2311491,1.760398,1.278976,,,0.24447,1.781384,1.278434,,45.0005395849294,12.6543227127689,32.4184982008144
0.466, 4.97,4.97,,,0.2218172,1.769743,1.279493,,,0.235077,1.790776,1.278931,,45.0005395849294,12.8361483198304,32.2416236269897
0.477, 5.05,5.05,,,0.2127557,1.778296,1.280776,,,0.2261422,1.799711,1.280176,,45.0005395849294,13.0608897118002,32.0243143344038
0.488, 5.29,5.29,,,0.2038483,1.785648,1.281664,,,0.2177129,1.80814,1.280993,,45.0005395849294,13.4270143081075,31.6695884697303
0.5, 5.59,5.59,,,0.1956309,1.791864,1.282106,,,0.2100856,1.815768,1.281334,,45.0005395849294,13.926885957473,31.185215372934
0.511, 5.95,5.95,,,0.1880806,1.797064,1.282669,,,0.2031454,1.822708,1.28177,,45.0005395849294,14.6670453627001,30.4635683411634
0.522, 6.47,6.47,,,0.1811579,1.800591,1.282627,,,0.1971322,1.828721,1.281564,,45.0005395849294,15.5210102304847,29.6293597950033
0.533, 6.91,6.91,,,0.1746703,1.804291,1.282437,,,0.1913014,1.834552,1.281227,,45.0005395849294,16.327848501855,28.8392571941811
0.544, 7.45,7.45,,,0.1681791,1.807362,1.281362,,,0.1856433,1.84021,1.280004,,45.0005395849294,17.1265281124887,28.0509680085332
0.555, 7.91,7.91,,,0.1609907,1.811584,1.280704,,,0.1791458,1.846708,1.279223,,45.0005395849294,17.7911891700524,27.3925292531302
0.566, 8.59,8.59,,,0.1532922,1.814898,1.279698,,,0.1726286,1.853225,1.278095,,45.0005395849294,18.3491438927296,26.8310382001086
0.577, 9.2,9.2,,,0.1458307,1.818481,1.277947,,,0.1661712,1.859682,1.276251,,45.0005395849294,18.8397529520646,26.3343041688058
0.588, 9.82,9.82,,,0.1385516,1.821725,1.275996,,,0.1599549,1.865899,1.274227,,45.0005395849294,19.2551616307304,25.9086536217646
0.599, 10.61,10.61,,,0.1309669,1.824236,1.274879,,,0.1537007,1.872153,1.272985,,45.0005395849294,19.7203897078159,25.4388834690074
0.611, 7.18,7.18,,,0.1243191,1.825936,1.273782,,,0.1394033,1.858474,1.272519,,45.0005293396459,69.8850934540607,24.9289518050482
0.622, 4.48,4.48,,,0.118186,1.826061,1.272607,,,0.1273883,1.846459,1.271835,,45.0005293396459,69.2954090884771,24.3381763167751
0.633, 1.97,1.97,,,0.1114727,1.825472,1.27104,,,0.115435,1.834505,1.270717,,45.0005293396459,68.6946939676909,23.7335560354396
0.644, 0.21,0.21,,,0.1048541,1.82337,1.269228,,,0.1052647,1.824335,1.269197,,45.0005293396459,68.0571982792477,23.0867644597947
0.655, 1.09,-1.09,,,0.09781696,1.819857,1.266397,,,0.09573802,1.814808,1.266529,,45.0005293396459,67.3883178724417,22.407368977054
0.666, 1.49,-1.49,,,0.09134252,1.814593,1.263364,,,0.08859867,1.807669,1.263492,,45.0005293396459,66.6215950084979,21.629053574864
0.678, 1.32,-1.32,,,0.08551836,1.808435,1.259759,,,0.08317134,1.802241,1.259828,,45.0005293396459,65.7562783666286,20.7572021496881
0.689, 0.66,-0.66,,,0.08012159,1.801186,1.256796,,,0.07900667,1.798077,1.256809,,45.0005293396459,64.7285125100603,19.7281710006113
0.7, 0.04,-0.04,,,0.07520344,1.79441,1.255332,,,0.07513322,1.794204,1.255332,,45.0005293396459,63.7495210329978,18.7515427689358
0.711, 0.06,0.06,,,0.06948408,1.788354,1.254425,,,0.06957966,1.78865,1.254426,,45.0005293396459,62.9211283927541,17.9265908363908
0.722, 0.02,0.02,,,0.06401863,1.783021,1.253356,,,0.06404902,1.783119,1.253357,,45.0005293396459,62.2671446281133,17.275834336043
0.733, 0.55,-0.55,,,0.05810577,1.778997,1.253246,,,0.05731792,1.776388,1.253228,,45.0005293396459,61.8025005321856,16.8137822968332
0.744, 1.36,-1.36,,,0.05106848,1.774737,1.253456,,,0.04914739,1.768218,1.253408,,45.0005293396459,61.4193610813555,16.4317186007675
0.755, 2.03,-2.03,,,0.04490333,1.770935,1.253525,,,0.04210545,1.761176,1.253444,,45.0005293396459,60.9981638175292,16.0125840540131
0.766, 2.28,-2.28,,,0.03892191,1.765932,1.254575,,,0.03585728,1.754928,1.254484,,45.0005293396459,60.5626982889238,15.5775488273135
0.777, 2.63,-2.63,,,0.03311919,1.761449,1.254908,,,0.02969837,1.748769,1.2548,,45.0005293396459,60.0982795892324,15.1142144201226
0.789, 2.68,-2.68,,,0.02772378,1.756384,1.254235,,,0.02432637,1.743397,1.254109,,45.0005293396459,59.6611543247049,14.6807023255655
0.8, 2.87,-2.87,,,0.02193335,1.751367,1.253486,,,0.01839712,1.737467,1.253311,,45.0005293396459,59.2763961190866,14.3051452382768
0.811, 2.77,-2.77,,,0.01663364,1.745809,1.252699,,,0.01330803,1.732378,1.25249,,45.0005293396459,58.9109673482816,13.9512987604345
0.822, 2.74,-2.74,,,0.01121016,1.740361,1.25144,,,0.00799945,1.72707,1.251195,,45.0005293396459,58.585911824537,13.6396594353938
