経過時間(s),めり込み量(mm),Y軸めり込み量(mm),,デバイス先端,X座標,Y座標,Z座標,,仮想物体との接触位置,X座標,Y座標,Z座標,,接触点の法線と床の法線とのなす角,接触点の法線とデバイスの方向ベクトルのなす角,床の法線とデバイスの方向ベクトルのなす角
0, 0.34,0.34,,,0.06262557,1.807675,1.053817,,,0.06261797,1.809358,1.053693,,45.8734855478893,43.3394512853846,3.97739363972802
0.011, 1.52,1.52,,,0.05939887,1.803845,1.053839,,,0.05942456,1.811413,1.053301,,45.8734855478893,43.1051279920497,3.82080045830568
0.022, 2.54,2.54,,,0.06125297,1.794714,1.050373,,,0.06119172,1.8074,1.049598,,45.8734855478893,43.8356337789273,3.25888550668049
0.033, 3.63,3.63,,,0.06024722,1.790439,1.051224,,,0.06018314,1.808538,1.050141,,45.8734855478893,43.8305828541766,3.18020023552768
0.044, 4.78,4.78,,,0.06088816,1.784508,1.051871,,,0.06074127,1.808387,1.050493,,45.8734855478893,44.0236996173956,3.07122158214498
0.055, 5.9,5.9,,,0.05974136,1.781287,1.054324,,,0.05960564,1.810722,1.05254,,45.8734855478893,43.8458278359798,3.22895134970226
0.066, 6.45,6.45,,,0.05616993,1.780969,1.054539,,,0.05630217,1.813156,1.052556,,45.8734855478893,43.4393359690274,3.28366244409206
0.077, 5.83,5.83,,,0.04797663,1.791582,1.057275,,,0.04881403,1.820629,1.055255,,45.8734855478893,42.0980029665787,4.07414753549706
0.088, 5.85,5.85,,,0.04593698,1.793983,1.058951,,,0.04704769,1.823114,1.056876,,45.8734855478893,41.6452194938147,4.4008183989354
0.1, 5.89,5.89,,,0.04531495,1.793849,1.058418,,,0.04652498,1.823191,1.056459,,45.8734855478893,41.692638080808,4.27695377555771
0.111, 6.11,6.11,,,0.04493859,1.792339,1.057551,,,0.04621875,1.822805,1.055626,,45.8734855478893,41.8032120102043,4.13284874091158
0.122, 6.29,6.29,,,0.0453745,1.791349,1.057831,,,0.04661009,1.822704,1.05588,,45.8734855478893,41.9485072052802,4.00252275875886
0.134, 6.37,6.37,,,0.04643245,1.792345,1.060961,,,0.04766803,1.824108,1.058852,,45.8734855478893,41.8041170102441,4.18633381637948
0.144, 6.46,6.46,,,0.04921356,1.792346,1.06436,,,0.05026369,1.824531,1.062025,,45.8734855478893,41.8217388978124,4.32182470206147
0.155, 6.65,6.65,,,0.05210804,1.7925,1.068871,,,0.05297088,1.825622,1.066219,,45.8734855478893,41.8056708782371,4.57530155284346
0.166, 6.67,6.67,,,0.05448474,1.79314,1.072261,,,0.05511494,1.826371,1.069384,,45.8734855478893,41.8554732011844,4.81975102822803
0.177, 6.72,6.72,,,0.05476162,1.793821,1.073788,,,0.05526146,1.827268,1.070754,,45.8734855478893,41.8687920696952,5.0058984373666
0.188, 6.75,6.75,,,0.05268891,1.793535,1.071476,,,0.05324084,1.827133,1.068549,,45.8734855478893,41.9419229031035,4.82027951410036
0.199, 6.72,6.72,,,0.05043198,1.793355,1.068789,,,0.05110642,1.826852,1.066031,,45.8734855478893,41.9665867155101,4.60313073095544
0.21, 6.8,6.8,,,0.04935624,1.793308,1.068207,,,0.05007082,1.827191,1.065459,,45.8734855478893,41.9732393195766,4.54967126869622
0.222, 6.79,6.79,,,0.04852837,1.793251,1.067198,,,0.04925314,1.827073,1.06448,,45.8734855478893,41.9886789617657,4.51245058073682
0.232, 6.81,6.81,,,0.04810104,1.793031,1.066589,,,0.04880664,1.826981,1.063908,,45.8734855478893,42.0686707200044,4.42713170198064
0.244, 6.79,6.79,,,0.04852751,1.79298,1.066795,,,0.04919869,1.826841,1.064109,,45.8734855478893,42.0947927777582,4.43340992631364
0.254, 6.55,6.55,,,0.04996181,1.793473,1.067062,,,0.05049101,1.826108,1.064402,,45.8734855478893,42.163996252503,4.50602166535944
0.266, 6.43,6.43,,,0.05223917,1.79343,1.068374,,,0.05262309,1.825464,1.065656,,45.8734855478893,42.2165272359477,4.65016810802627
0.277, 6.14,6.14,,,0.05482826,1.793375,1.068746,,,0.05509109,1.823963,1.066078,,45.8734855478893,42.2703662005822,4.76115056810097
0.288, 6.02,6.02,,,0.05502962,1.79276,1.067249,,,0.05535458,1.822751,1.064688,,45.8734855478893,42.2448110485137,4.67156068679827
0.299, 6.1,6.1,,,0.0543993,1.7927,1.067104,,,0.0547802,1.823087,1.064572,,45.8734855478893,42.2503298412095,4.57024678611149
0.31, 5.69,5.69,,,0.05651899,1.792726,1.066304,,,0.05691152,1.821082,1.063971,,45.8734855478893,42.2350438782724,4.52328966376118
0.321, 5.27,5.27,,,0.05892053,1.791938,1.064558,,,0.05936352,1.818211,1.062508,,45.8734855478893,42.2702227666136,4.31987553688131
0.333, 5.03,5.03,,,0.06132517,1.791564,1.06475,,,0.06176109,1.816633,1.062755,,45.8734855478893,42.1877140837358,4.41383930045204
0.344, 4.72,4.72,,,0.06344241,1.791191,1.064134,,,0.06391042,1.814698,1.062266,,45.8734855478893,42.0870575887384,4.44051716483409
0.355, 4.45,4.45,,,0.06604938,1.791001,1.064595,,,0.06652768,1.81316,1.062786,,45.8734855478893,41.9334739593353,4.58419787398984
0.366, 4.07,4.07,,,0.06839312,1.790681,1.063803,,,0.06890191,1.810959,1.06216,,45.8734855478893,41.8086761613883,4.61001940342853
0.378, 3.74,3.74,,,0.07130626,1.790269,1.063807,,,0.07181925,1.808926,1.062305,,45.8734855478893,41.728206289921,4.62601058337782
0.388, 3.39,3.39,,,0.07430467,1.789328,1.06299,,,0.07482978,1.806232,1.061644,,45.8734855478893,41.6117720583799,4.6538739124347
0.399, 2.91,2.91,,,0.07672336,1.789224,1.061792,,,0.07724571,1.803723,1.060639,,45.8734855478893,41.4096428608019,4.76275480873763
0.411, 2.99,2.99,,,0.08552602,1.783014,1.06253,,,0.08589157,1.797918,1.06137,,45.8734855478893,41.9563653377016,4.42576011465611
0.422, 2.99,2.99,,,0.09224135,1.778124,1.062474,,,0.09249504,1.793022,1.061299,,45.8734855478893,42.2326942932633,4.36601090211998
0.433, 3.07,3.07,,,0.09738685,1.774808,1.063713,,,0.09759036,1.790101,1.062412,,45.8734855478893,42.1511828179766,4.67503938742312
0.444, 3.46,3.46,,,0.1064239,1.765907,1.063197,,,0.1064111,1.783165,1.061777,,45.8734855478893,42.8568437924397,4.45293829038093
0.455, 4.05,4.05,,,0.1131807,1.759341,1.06508,,,0.1129882,1.779509,1.06337,,45.8734855478893,43.1401600313278,4.6281693499823
0.466, 4.39,4.39,,,0.1174842,1.752784,1.062793,,,0.1172248,1.77465,1.060983,,45.8734855478893,43.314452793718,4.53362715478233
0.477, 5.14,5.14,,,0.123307,1.74545,1.063758,,,0.1228294,1.771042,1.061668,,45.8734855478893,43.6492823178929,4.5461823227879
0.489, 5.48,5.48,,,0.1223537,1.742785,1.06193,,,0.1221431,1.770083,1.059675,,45.8734855478893,43.1427213521953,4.49426989833264
0.5, 5.76,5.76,,,0.1249332,1.737602,1.059449,,,0.124807,1.766337,1.057231,,45.8734855478893,43.2043638077393,4.17147772846128
0.511, 6.03,6.03,,,0.1265717,1.733655,1.057762,,,0.1266043,1.763738,1.055485,,45.8734855478893,43.0287357434035,4.07741450026353
0.522, 5.41,5.41,,,0.1226165,1.73985,1.058435,,,0.1232131,1.766795,1.056261,,45.8734855478893,41.9466391485942,4.54070749943366
0.534, 4.42,4.42,,,0.1239575,1.744196,1.058858,,,0.1247307,1.766201,1.05697,,45.8734855478893,41.2030125686861,5.06759169244114
0.544, 3.78,3.78,,,0.1305975,1.743283,1.059473,,,0.131229,1.762106,1.057886,,45.8734855478893,41.3266833854515,4.95464043039298
0.555, 3.33,3.33,,,0.135722,1.741995,1.059536,,,0.1362989,1.758592,1.058164,,45.8734855478893,41.3417473672467,4.8932080031601
0.566, 2.48,2.48,,,0.1390749,1.742828,1.057754,,,0.1395734,1.755169,1.056773,,45.8734855478893,41.2291141358729,4.87391229240494
0.577, 2.02,2.02,,,0.1438876,1.742227,1.058333,,,0.1443062,1.752266,1.057548,,45.8734855478893,41.2245618149178,4.84650317091523
0.588, 1.65,1.65,,,0.153616,1.737046,1.058183,,,0.15388,1.745268,1.057581,,45.8734855478893,41.81830672785,4.3420343774795
0.6, 1.59,1.59,,,0.1610169,1.732442,1.058803,,,0.1611998,1.740373,1.058228,,45.8734855478893,42.2189997643585,4.11789489591361
0.61, 1.69,1.69,,,0.1731908,1.723753,1.059662,,,0.1732232,1.73217,1.059068,,45.8734855478893,43.1064974449401,3.79095893576549
0.622, 2.32,2.32,,,0.1842714,1.714478,1.062405,,,0.1841157,1.726025,1.061583,,45.8734855478893,43.8180016460755,3.90128740524536
0.633, 2.77,2.77,,,0.1932836,1.706307,1.063367,,,0.1929286,1.720137,1.062368,,45.8734855478893,44.3032148561164,4.15067468037561
0.644, 3.47,3.47,,,0.201508,1.69766,1.064476,,,0.2008765,1.714931,1.063218,,45.8734855478893,44.7531501400758,4.43773727791925
0.655, 4.01,4.01,,,0.2073707,1.690488,1.064252,,,0.2065372,1.710484,1.062816,,45.8734855478893,45.0137969817395,4.53233069953657
0.666, 4.64,4.64,,,0.21021,1.684072,1.06266,,,0.2092915,1.707197,1.06109,,45.8734855478893,45.074230493834,4.28331438904529
0.677, 5.12,5.12,,,0.2117479,1.680243,1.062474,,,0.2109163,1.705762,1.060758,,45.8734855478893,44.7911635568437,4.04820434331717
0.688, 5.35,5.35,,,0.2078953,1.679609,1.059865,,,0.2075628,1.70631,1.058151,,45.8734855478893,44.0424245804841,3.49468774937305
0.699, 5.55,5.55,,,0.208389,1.676108,1.057104,,,0.2083706,1.703801,1.05554,,45.8734855478893,43.8376828356213,2.98412813491445
0.711, 4.45,4.45,,,0.202695,1.685516,1.057232,,,0.2033457,1.707723,1.055861,,45.8734855478893,42.3819407526641,3.68663334862537
0.722, 3.59,3.59,,,0.2056291,1.687186,1.056347,,,0.2063399,1.70507,1.055239,,45.8734855478893,41.9448906202153,4.00139705823761
0.733, 2.88,2.88,,,0.2151045,1.68475,1.05725,,,0.2155729,1.699113,1.05635,,45.8734855478893,42.2072620845964,3.82392526976401
0.744, 2.13,2.13,,,0.2222074,1.683854,1.057653,,,0.2225149,1.694483,1.05698,,45.8734855478893,42.3364926751915,3.75603617951103
0.755, 1.41,1.41,,,0.2289744,1.683579,1.058858,,,0.2291797,1.69063,1.058392,,45.8734855478893,42.2190236700199,3.90444850208264
0.766, 0.61,0.61,,,0.2400827,1.679002,1.057845,,,0.2401415,1.682052,1.05766,,45.8734855478893,42.84703222597,3.39615181461046
0.778, 0.1,0.1,,,0.247194,1.676952,1.058512,,,0.247203,1.677475,1.058481,,45.8734855478893,42.9460153246673,3.33430850882176
0.788, 0.08,0.08,,,0.2592689,1.668533,1.058901,,,0.2592698,1.668916,1.05888,,45.8734855478893,43.7230346984984,2.95810276702339
0.8, 0.08,0.08,,,0.2737904,1.659679,1.061369,,,0.2737834,1.66008,1.061347,,45.8734855478893,44.5529538859791,3.10482098928457
0.811, 0.22,0.22,,,0.2860633,1.651719,1.063737,,,0.286028,1.652803,1.063671,,45.8734855478893,45.0504238701444,3.6962869669749
0.822, 0.48,0.48,,,0.2935596,1.645046,1.063933,,,0.2934661,1.647435,1.063791,,45.8734855478893,45.374629035361,3.85183427570969
0.834, 0.59,0.59,,,0.2989461,1.639962,1.063162,,,0.2988331,1.642914,1.062994,,45.8734855478893,45.431524509564,3.70744792265494
0.845, 1.08,1.08,,,0.3016917,1.634171,1.061391,,,0.3015168,1.639571,1.06112,,45.8734855478893,45.4243459809461,3.21125923925355
0.856, 1.26,1.26,,,0.3059447,1.62929,1.060205,,,0.305774,1.635562,1.059912,,45.8734855478893,45.3359530902621,2.88167465988505
0.866, 1.56,1.56,,,0.3094666,1.624537,1.059366,,,0.3092951,1.632325,1.05902,,45.8734855478893,45.2048954241149,2.61711049139795
0.878, 1.87,1.87,,,0.3142864,1.618953,1.058757,,,0.3141148,1.628316,1.058374,,45.8734855478893,45.1839677250803,2.34134246510627
0.888, 2.07,2.07,,,0.3202289,1.61316,1.058129,,,0.3200505,1.6235,1.057745,,45.8734855478893,45.2839241257074,2.1238459826536
0.899, 2.11,2.11,,,0.3270764,1.60819,1.058504,,,0.3269007,1.618755,1.058126,,45.8734855478893,45.3145780138493,2.03393913789355
0.911, 2.15,2.15,,,0.3330442,1.603152,1.057819,,,0.3328762,1.613884,1.057461,,45.8734855478893,45.3630757707015,1.89072288158843
0.921, 2.33,2.33,,,0.3380421,1.597988,1.056996,,,0.3378776,1.609622,1.056651,,45.8734855478893,45.4509632274009,1.65658507057293
0.933, 2.36,2.36,,,0.3450016,1.593757,1.058385,,,0.3448246,1.605535,1.058027,,45.8734855478893,45.4547676426627,1.72351441255252
0.944, 2.33,2.33,,,0.3530741,1.588542,1.059114,,,0.3528527,1.600189,1.058766,,45.8734855478893,45.6430554622729,1.82241586914724
経過時間(s),めり込み量(mm),Y軸めり込み量(mm),,デバイス先端,X座標,Y座標,Z座標,,仮想物体との接触位置,X座標,Y座標,Z座標,,接触点の法線と床の法線とのなす角,接触点の法線とデバイスの方向ベクトルのなす角,床の法線とデバイスの方向ベクトルのなす角
0, 0.92,-0.92,,,0.07726499,1.797533,1.044872,,,0.07670244,1.793005,1.045484,,45.8734855478893,35.6606967020433,10.2178286715396
0.011, 1.54,-1.54,,,0.0691223,1.803771,1.040175,,,0.06803905,1.796189,1.041161,,45.8734855478893,35.1307150183334,10.7675538702697
0.022, 0.85,-0.85,,,0.06094954,1.805593,1.040016,,,0.06028182,1.801445,1.040569,,45.8734855478893,34.3092379444319,11.6487028901945
0.033, 0.07,-0.07,,,0.06660194,1.799365,1.043459,,,0.06654959,1.799001,1.043505,,45.8734855478893,35.1872621528983,10.7230432362346
0.044, 0.47,0.47,,,0.07125213,1.794685,1.046027,,,0.07155208,1.796973,1.045744,,45.8734855478893,35.8275411433509,10.0572133625817
0.056, 1.43,1.43,,,0.07164162,1.790281,1.048057,,,0.07252539,1.797295,1.047155,,45.8734855478893,35.8421987289018,10.031346583141
0.067, 2.1,2.1,,,0.07099494,1.78717,1.04858,,,0.07225993,1.797528,1.047207,,45.8734855478893,35.8443741440919,10.0335817624847
0.077, 2.83,2.83,,,0.07150592,1.782983,1.049048,,,0.07312048,1.796917,1.047234,,45.8734855478893,36.1855796496796,9.6992098609715
0.089, 3.31,3.31,,,0.07317587,1.779497,1.049659,,,0.07497331,1.795808,1.047576,,45.8734855478893,36.5063389845558,9.38696947930054
0.1, 3.61,3.61,,,0.07076595,1.77874,1.048557,,,0.07277845,1.796528,1.046363,,45.8734855478893,36.5582347604254,9.31970663199966
0.111, 3.51,3.51,,,0.06854454,1.779935,1.047244,,,0.0705982,1.797227,1.045135,,45.8734855478893,36.3883372246438,9.48514320060379
0.122, 3.42,3.42,,,0.06579366,1.781986,1.046705,,,0.06789262,1.798848,1.04464,,45.8734855478893,36.1458142894384,9.73084131991125
0.133, 3.47,3.47,,,0.06495634,1.783458,1.04831,,,0.06712498,1.800519,1.04615,,45.8734855478893,35.8809839570244,9.99418437867478
0.145, 3.24,3.24,,,0.06668088,1.783746,1.048607,,,0.06866339,1.799705,1.046578,,45.8734855478893,35.9717332629065,9.9017864359277
0.157, 3.41,3.41,,,0.06406709,1.785606,1.050011,,,0.06624035,1.802383,1.047806,,45.8734855478893,35.5964724350648,10.2773187637813
0.167, 3.11,3.11,,,0.06336418,1.787286,1.049256,,,0.06539468,1.802589,1.047242,,45.8734855478893,35.4644073160431,10.41113668005
0.178, 3.05,3.05,,,0.06409571,1.787692,1.050021,,,0.06608571,1.802691,1.048072,,45.8734855478893,35.5305576963139,10.346723729101
0.189, 2.86,2.86,,,0.06382377,1.789009,1.049995,,,0.06569828,1.803049,1.048173,,45.8734855478893,35.5043912423317,10.3742015793674
0.2, 3.15,3.15,,,0.0653527,1.786789,1.050717,,,0.06733411,1.802265,1.04874,,45.8734855478893,35.796853104264,10.0780975191615
0.211, 3.15,3.15,,,0.06496597,1.786843,1.050442,,,0.06696162,1.802339,1.048468,,45.8734855478893,35.7824277451383,10.0934833736125
0.222, 3.22,3.22,,,0.06422465,1.786834,1.050269,,,0.06626882,1.802689,1.048252,,45.8734855478893,35.7854193679115,10.0908725338749
0.233, 3.23,3.23,,,0.06429724,1.786859,1.050422,,,0.06634265,1.802741,1.048397,,45.8734855478893,35.7769533486709,10.0988211663003
0.244, 3.3,3.3,,,0.06402969,1.786804,1.050647,,,0.06610484,1.803039,1.048566,,45.8734855478893,35.7895926133783,10.0849251468206
0.255, 3.38,3.38,,,0.06371424,1.786793,1.050946,,,0.06582364,1.803417,1.048799,,45.8734855478893,35.788175349165,10.0855108355256
0.266, 3.49,3.49,,,0.06370483,1.7862,1.050984,,,0.0658802,1.80335,1.048765,,45.8734855478893,35.7823355375871,10.0912618546467
0.277, 3.63,3.63,,,0.06304238,1.78618,1.051478,,,0.06531134,1.804064,1.049169,,45.8734855478893,35.7884656321966,10.0851787175865
0.288, 3.63,3.63,,,0.06305266,1.786155,1.051416,,,0.06531785,1.804017,1.049112,,45.8734855478893,35.7961461797046,10.0775118304565
0.299, 3.72,3.72,,,0.06320196,1.785446,1.051296,,,0.06551542,1.803747,1.048942,,45.8734855478893,35.8257550489326,10.0479003999076
0.31, 3.86,3.86,,,0.06372102,1.784556,1.051667,,,0.06609539,1.80354,1.04924,,45.8734855478893,35.9095887884725,9.96395310847592
0.322, 4.02,4.02,,,0.0641377,1.783796,1.052304,,,0.0665888,1.803571,1.049775,,45.8734855478893,35.952653129991,9.9208332716719
0.333, 4.17,4.17,,,0.06496139,1.782181,1.05206,,,0.06745827,1.802696,1.049451,,45.8734855478893,36.0697669653357,9.80405496936091
0.344, 4.3,4.3,,,0.06556668,1.781268,1.052449,,,0.06811219,1.802451,1.049771,,45.8734855478893,36.1611480636983,9.71298379082319
0.355, 4.39,4.39,,,0.0667752,1.780518,1.053309,,,0.06933829,1.802133,1.050564,,45.8734855478893,36.2000289144667,9.67572852503207
0.366, 4.3,4.3,,,0.06595641,1.78099,1.05251,,,0.06854033,1.802171,1.049817,,45.8734855478893,36.0599314932045,9.81373761601361
0.378, 4.18,4.18,,,0.06629521,1.781221,1.052205,,,0.06885135,1.801787,1.049605,,45.8734855478893,35.9956696601867,9.87802591601372
0.389, 4.17,4.17,,,0.06782153,1.780857,1.053198,,,0.07039952,1.801376,1.050593,,45.8734855478893,35.9244273740314,9.94957385312589
0.4, 4.04,4.04,,,0.0689496,1.780362,1.052668,,,0.0715184,1.800267,1.0502,,45.8734855478893,35.9048076561865,9.97604425051767
0.411, 3.91,3.91,,,0.07012823,1.780536,1.053048,,,0.07265145,1.799786,1.050678,,45.8734855478893,35.8612378806834,10.0253257715552
0.422, 3.95,3.95,,,0.07300266,1.778393,1.053227,,,0.07553139,1.797813,1.050867,,45.8734855478893,35.9587149227107,9.9297492296116
0.433, 4.04,4.04,,,0.07569076,1.776867,1.054522,,,0.07824214,1.796741,1.052116,,45.8734855478893,36.0478967002219,9.83751179630555
0.444, 3.85,3.85,,,0.07640426,1.777159,1.054199,,,0.07886253,1.796117,1.051886,,45.8734855478893,35.9601219416406,9.92588675774344
0.456, 3.53,3.53,,,0.07905708,1.776817,1.05384,,,0.08136111,1.794179,1.051743,,45.8734855478893,35.8925167311171,10.0047259215917
0.467, 3.22,3.22,,,0.08095042,1.77732,1.053993,,,0.08310425,1.793146,1.052078,,45.8734855478893,35.7516884796341,10.1556705367276
0.477, 2.93,2.93,,,0.08392894,1.77669,1.053851,,,0.08590405,1.791124,1.05212,,45.8734855478893,35.7641535745225,10.1500714893113
0.489, 2.76,2.76,,,0.08631878,1.775517,1.053221,,,0.08819944,1.789073,1.05162,,45.8734855478893,35.7637608386561,10.1665305372057
0.5, 2.59,2.59,,,0.08959897,1.774304,1.05351,,,0.09136461,1.787034,1.052005,,45.8734855478893,35.7610116875917,10.1686385042797
0.511, 2.33,2.33,,,0.09274274,1.773104,1.052965,,,0.0943494,1.784567,1.051627,,45.8734855478893,35.7665612161379,10.1779582971428
0.522, 2.66,2.66,,,0.103444,1.762637,1.051737,,,0.1050032,1.775774,1.050293,,45.8734855478893,36.8676525665004,9.02229715192503
0.533, 2.81,2.81,,,0.108536,1.760237,1.054735,,,0.1101157,1.774106,1.053132,,45.8734855478893,36.8328254328917,9.04107163388366
0.545, 3.39,3.39,,,0.1190419,1.749205,1.054522,,,0.1206298,1.765991,1.052583,,45.8734855478893,37.6078264858792,8.29928749745291
0.556, 4.25,4.25,,,0.1321793,1.738627,1.0595,,,0.1336727,1.759692,1.057039,,45.8734855478893,38.5262307715951,7.56874926717764
0.567, 4.91,4.91,,,0.141759,1.729647,1.061636,,,0.1430752,1.753965,1.058632,,45.8734855478893,38.9742365271676,7.4521400120439
0.578, 5.31,5.31,,,0.1433142,1.7248,1.059791,,,0.1447951,1.7511,1.056447,,45.8734855478893,38.7463882529856,7.68921587153781
0.589, 5.71,5.71,,,0.1510214,1.716249,1.058465,,,0.1523518,1.744541,1.055062,,45.8734855478893,39.3947063758676,7.1276112666244
0.6, 5.95,5.95,,,0.1556105,1.712576,1.059988,,,0.157051,1.742045,1.056358,,45.8734855478893,39.2084812733294,7.31764505329255
0.611, 5.97,5.97,,,0.1561869,1.709905,1.05736,,,0.157928,1.739476,1.053733,,45.8734855478893,38.8064700103477,7.52347365197683
0.622, 5.39,5.39,,,0.1540907,1.711958,1.054071,,,0.1562173,1.738632,1.050872,,45.8734855478893,38.04211722198,7.98925155927523
0.633, 4.38,4.38,,,0.1512511,1.718848,1.053422,,,0.1535988,1.740486,1.05078,,45.8734855478893,36.7930088462331,9.09083382947067
0.644, 3.8,3.8,,,0.1589612,1.716756,1.053641,,,0.161046,1.735512,1.051446,,45.8734855478893,36.8839015860837,8.99007488163852
0.655, 3.33,3.33,,,0.1634865,1.714975,1.052022,,,0.1654394,1.731397,1.05023,,45.8734855478893,36.8904210014651,9.00241447180441
0.666, 2.51,2.51,,,0.1688926,1.713911,1.049597,,,0.1704704,1.726321,1.04834,,45.8734855478893,36.8877982088968,9.0786999987478
0.677, 1.81,1.81,,,0.1753533,1.713997,1.050659,,,0.1765324,1.722912,1.049756,,45.8734855478893,36.6873219170519,9.310951183501
0.689, 0.98,0.98,,,0.1843746,1.712189,1.050712,,,0.1850075,1.717046,1.050233,,45.8734855478893,36.870019226982,9.13576793522249
0.7, 0.69,0.69,,,0.1936121,1.709078,1.053345,,,0.1940341,1.712461,1.053009,,45.8734855478893,37.0543694426452,8.91030425076811
0.711, 0.8,0.8,,,0.2079433,1.699971,1.056094,,,0.2083646,1.703924,1.055702,,45.8734855478893,37.7736156629894,8.11445063082487
0.722, 1.46,1.46,,,0.2246951,1.689369,1.063415,,,0.2252768,1.696627,1.062665,,45.8734855478893,38.6657305513215,7.25609480529977
0.733, 1.56,1.56,,,0.2390603,1.681303,1.067442,,,0.239535,1.689051,1.066595,,45.8734855478893,39.2105576507793,6.9275857672522
