経過時間(s),めり込み量(mm),Y軸めり込み量(mm),,デバイス先端,X座標,Y座標,Z座標,,仮想物体との接触位置,X座標,Y座標,Z座標,,接触点の法線と床の法線とのなす角,接触点の法線とデバイスの方向ベクトルのなす角,床の法線とデバイスの方向ベクトルのなす角
0.001, 0.48,-0.48,,,0.01187813,1.820046,1.248959,,,0.01133849,1.817718,1.248986,,44.8235181620417,54.4293661698463,13.0554784945808
0.01, 1.09,1.09,,,0.01170566,1.814191,1.249992,,,0.01289926,1.819485,1.249924,,44.8235181620417,54.1237083828048,12.7139383097331
0.022, 2.71,2.71,,,0.01198517,1.807786,1.250294,,,0.01489319,1.82103,1.250115,,44.8235181620417,53.8456957856596,12.3946833239798
0.035, 3.83,3.83,,,0.01193445,1.802762,1.249962,,,0.01595245,1.821483,1.249697,,44.8235181620417,53.6075680770627,12.1249267177641
0.044, 4.87,4.87,,,0.01137022,1.797916,1.249974,,,0.01640161,1.821757,1.249635,,44.8235181620417,53.450808409784,11.928693680823
0.055, 5.78,5.78,,,0.01073766,1.793082,1.249278,,,0.01661438,1.821376,1.248884,,44.8235181620417,53.3154818755244,11.7451246680244
0.066, 6.68,6.68,,,0.01056412,1.788879,1.248974,,,0.017262,1.821594,1.248545,,44.8235181620417,53.2136881540617,11.580052660757
0.077, 7.23,7.23,,,0.0097665,1.785306,1.248101,,,0.01690967,1.820718,1.247657,,44.8235181620417,53.1031927718387,11.4129896534021
0.088, 7.82,7.82,,,0.009165183,1.781658,1.247261,,,0.01675856,1.820001,1.246795,,44.8235181620417,52.9567603502976,11.2099383803118
0.099, 8.57,8.57,,,0.009678025,1.778741,1.247321,,,0.01787101,1.820791,1.2468,,44.8235181620417,52.8095561174018,11.0338168348221
0.11, 9.15,9.15,,,0.00935303,1.776622,1.248355,,,0.0180039,1.821561,1.247755,,44.8235181620417,52.6744891303234,10.9075360320928
0.121, 9.53,9.53,,,0.009335298,1.77527,1.248872,,,0.01827047,1.822055,1.248188,,44.8235181620417,52.564290861321,10.8268194200487
0.133, 10,10,,,0.009566788,1.774755,1.250906,,,0.01893128,1.823872,1.250097,,44.8235181620417,52.4856924616343,10.8148862261271
0.143, 10.41,10.41,,,0.009881966,1.774257,1.252533,,,0.01960275,1.825388,1.251569,,44.8235181620417,52.3790527210904,10.7941548950257
0.154, 11.06,11.06,,,0.01053629,1.773798,1.2555,,,0.02079262,1.828124,1.254248,,44.8235181620417,52.1757214102519,10.7411628738248
0.166, 11.7,11.7,,,0.01171589,1.773812,1.258772,,,0.02241309,1.831326,1.257157,,44.8235181620417,51.8789975103961,10.6182835052074
0.176, 12.7,12.7,,,0.01328383,1.773186,1.263107,,,0.02465685,1.835608,1.260969,,44.8235181620417,51.4990136068748,10.4592929274531
0.188, 13.35,13.35,,,0.01498535,1.773085,1.266023,,,0.02666844,1.838747,1.263396,,44.8235181620417,51.1127698351534,10.2835000848082
0.209, 14.09,14.09,,,0.01615638,1.772195,1.268933,,,0.02817588,1.841558,1.265863,,44.8235181620417,50.7610629140091,10.0809849815528
0.215, 14.47,14.47,,,0.01786076,1.771547,1.269101,,,0.0298735,1.842797,1.265918,,44.8235181620417,50.5394949985941,9.83271358854714
0.221, 15.07,15.07,,,0.01938565,1.770538,1.270502,,,0.03162161,1.844832,1.267048,,44.8235181620417,50.3038910448254,9.64599671240237
0.233, 15.65,15.65,,,0.02079913,1.769544,1.271767,,,0.03322692,1.846688,1.268068,,44.8235181620417,50.0940300733221,9.47276348307764
0.244, 15.93,15.93,,,0.0212763,1.768588,1.272072,,,0.0337182,1.84717,1.268258,,44.8235181620417,49.9509205387198,9.33270875049661
0.255, 16.13,16.13,,,0.02137505,1.767786,1.272384,,,0.03381618,1.847375,1.26845,,44.8235181620417,49.8302618352945,9.23837615672096
0.267, 16.28,16.28,,,0.02115936,1.766422,1.271813,,,0.03361329,1.84678,1.267811,,44.8235181620417,49.7584389830759,9.17232566796402
0.278, 16.32,16.32,,,0.02039846,1.765662,1.271918,,,0.03277995,1.846238,1.267878,,44.8235181620417,49.6881221875274,9.10705211320355
0.288, 16.22,16.22,,,0.02003812,1.764944,1.27066,,,0.03228948,1.845025,1.266654,,44.8235181620417,49.6621128278918,9.06915054078021
0.3, 16.06,16.06,,,0.01878793,1.764316,1.269943,,,0.03092118,1.843594,1.265998,,44.8235181620417,49.6738949038822,9.06817553130333
0.31, 15.76,15.76,,,0.01770987,1.764418,1.269041,,,0.02970219,1.842184,1.265223,,44.8235181620417,49.7485454543385,9.12011741094856
0.322, 15.53,15.53,,,0.01681647,1.763836,1.267525,,,0.0286822,1.840466,1.263812,,44.8235181620417,49.7993381546878,9.14423907710487
0.333, 15.03,15.03,,,0.01333119,1.761984,1.264997,,,0.02487788,1.836151,1.261516,,44.8235181620417,49.889028781278,9.16660367714607
0.344, 14.69,14.69,,,0.01061209,1.759443,1.26179,,,0.02192654,1.831938,1.258509,,44.8235181620417,49.9646082374356,9.16349508738658
0.354, 14.15,14.15,,,0.007060124,1.756774,1.258052,,,0.01790982,1.82661,1.25499,,44.8235181620417,49.9824965023741,9.10513112255294
0.366, 13.95,13.95,,,0.004554885,1.753404,1.25461,,,0.01512237,1.822266,1.251635,,44.8235181620417,49.9204578958692,8.99357108462263
0.377, 13.63,13.63,,,0.001546973,1.750622,1.251843,,,0.01172538,1.817969,1.248954,,44.8235181620417,49.8288582314592,8.86323912605455
0.388, 13.35,13.35,,,-0.001373691,1.747445,1.24851,,,0.008532837,1.813404,1.245691,,44.8235181620417,49.7925216260859,8.81030686900722
0.399, 12.88,12.88,,,-0.004603202,1.745026,1.245285,,,0.004966736,1.808677,1.242572,,44.8235181620417,49.8038358341311,8.81708327024895
0.41, 12.49,12.49,,,-0.008080909,1.742056,1.241916,,,0.001257688,1.80376,1.239327,,44.8235181620417,49.8712668748356,8.86184235240815
0.421, 12.21,12.21,,,-0.01153908,1.738398,1.238281,,,-0.002358124,1.798728,1.235827,,44.8235181620417,49.9526315010593,8.89039424989157
0.432, 11.94,11.94,,,-0.01490203,1.734663,1.234487,,,-0.005893558,1.793653,1.232185,,44.8235181620417,50.0343683725823,8.89865450968919
0.443, 11.9,11.9,,,-0.01792271,1.730245,1.23092,,,-0.008963943,1.789014,1.228696,,44.8235181620417,50.0635162040542,8.86930945651048
0.454, 11.95,11.95,,,-0.02059015,1.725755,1.227608,,,-0.01166485,1.784778,1.225405,,44.8235181620417,50.0278626175789,8.79649451934253
0.465, 11.92,11.92,,,-0.02397481,1.720715,1.223752,,,-0.0151294,1.779614,1.221567,,44.8235181620417,49.9898799366614,8.73716152144736
0.477, 11.86,11.86,,,-0.02717443,1.715726,1.219453,,,-0.01837054,1.774343,1.217353,,44.8235181620417,50.0358915047248,8.72289667176275
0.488, 11.67,11.67,,,-0.03107062,1.710701,1.214875,,,-0.02239638,1.768365,1.212925,,44.8235181620417,50.1173005271768,8.71338819492904
0.499, 11.68,11.68,,,-0.03446238,1.705101,1.210264,,,-0.02573652,1.762835,1.208445,,44.8235181620417,50.2297937396765,8.72881673806111
0.51, 11.68,11.68,,,-0.03827929,1.699536,1.206076,,,-0.02953264,1.757247,1.204339,,44.8235181620417,50.2978190068222,8.73857793188708
0.521, 11.77,11.77,,,-0.04179094,1.693956,1.2023,,,-0.03299445,1.752134,1.200569,,44.8235181620417,50.2946361387576,8.71543981294389
0.532, 11.94,11.94,,,-0.04580896,1.687783,1.198757,,,-0.03693021,1.746811,1.196977,,44.8235181620417,50.2457627215116,8.6761585423466
0.544, 11.97,11.97,,,-0.04991667,1.681548,1.194212,,,-0.04106142,1.740692,1.192456,,44.8235181620417,50.2316788718349,8.63351511122394
0.554, 11.94,11.94,,,-0.05400823,1.675166,1.189095,,,-0.04522717,1.734203,1.187443,,44.8235181620417,50.2495022499781,8.56359617418348
0.566, 11.91,11.91,,,-0.05815777,1.668078,1.182877,,,-0.04944043,1.726961,1.181415,,44.8235181620417,50.3316762535958,8.49930104399439
0.577, 11.86,11.86,,,-0.06229012,1.660936,1.176434,,,-0.05364846,1.71959,1.175199,,44.8235181620417,50.4354029185398,8.43337862128082
0.588, 11.68,11.68,,,-0.06651678,1.654528,1.170338,,,-0.05802797,1.712313,1.169288,,44.8235181620417,50.5197352618751,8.39278766194663
0.599, 11.44,11.44,,,-0.07156731,1.647691,1.16404,,,-0.06325072,1.704254,1.163113,,44.8235181620417,50.5891504724783,8.39138320433763
0.61, 11.09,11.09,,,-0.07731104,1.640933,1.157937,,,-0.06922911,1.695778,1.157105,,44.8235181620417,50.6476647014695,8.40431445962391
0.621, 10.86,10.86,,,-0.08232687,1.634134,1.151851,,,-0.07441355,1.687863,1.151095,,44.8235181620417,50.6838203068349,8.39594577057623
0.632, 10.46,10.46,,,-0.08763368,1.627782,1.145584,,,-0.08006859,1.679506,1.144932,,44.8235181620417,50.6922931562645,8.33352381971489
0.643, 9.94,9.94,,,-0.0935489,1.620692,1.138131,,,-0.08641502,1.669869,1.137649,,44.8235181620417,50.7418871584479,8.25946834947345
0.654, 9.57,9.57,,,-0.09910006,1.613729,1.131414,,,-0.0922533,1.661088,1.13107,,44.8235181620417,50.8115141049094,8.22802898959876
0.666, 8.89,8.89,,,-0.1052897,1.607454,1.124371,,,-0.09893847,1.651458,1.124136,,44.8235181620417,50.8716095226495,8.2130298945988
0.677, 8.4,8.4,,,-0.1111404,1.600716,1.117518,,,-0.1051178,1.642295,1.117357,,44.8235181620417,50.947223129752,8.24173888642876
0.688, 7.84,7.84,,,-0.1178197,1.594011,1.111024,,,-0.1121665,1.632781,1.110951,,44.8235181620417,51.0609287007956,8.29720514358765
0.699, 7.35,7.35,,,-0.1237977,1.587205,1.104202,,,-0.1184718,1.623572,1.104233,,44.8235181620417,51.1879668007281,8.33689281042924
0.71, 6.89,6.89,,,-0.1295491,1.580272,1.097166,,,-0.1245508,1.614379,1.09731,,44.8235181620417,51.315872334661,8.35185946203155
0.721, 6.32,6.32,,,-0.1357081,1.573843,1.090567,,,-0.1311378,1.60513,1.090818,,44.8235181620417,51.4335223398406,8.34028314548416
経過時間(s),めり込み量(mm),Y軸めり込み量(mm),,デバイス先端,X座標,Y座標,Z座標,,仮想物体との接触位置,X座標,Y座標,Z座標,,接触点の法線と床の法線とのなす角,接触点の法線とデバイスの方向ベクトルのなす角,床の法線とデバイスの方向ベクトルのなす角
0.001, 0.68,0.68,,,0.03255475,1.832307,1.251736,,,0.0339937,1.835373,1.251299,,44.8235181620417,60.7790513550526,26.0553336376562
0.01, 4.71,4.71,,,0.03249511,1.822802,1.258418,,,0.04220921,1.844047,1.255351,,44.8235181620417,60.2289411044188,25.5432163132234
0.022, 8.02,8.02,,,0.03250474,1.814763,1.264019,,,0.04874124,1.851075,1.258757,,44.8235181620417,59.7894799152601,25.099575048409
0.033, 10.73,10.73,,,0.03150243,1.807201,1.268351,,,0.05295364,1.855888,1.261351,,44.8235181620417,59.5421656024853,24.7893786007903
0.044, 12.78,12.78,,,0.03039286,1.801143,1.271516,,,0.05572049,1.859222,1.263299,,44.8235181620417,59.4116475212675,24.5536277979585
0.055, 13.88,13.88,,,0.02792465,1.796277,1.272562,,,0.05541821,1.859422,1.263884,,44.8235181620417,59.489457034127,24.466269680905
0.066, 15,15,,,0.02551276,1.791301,1.273426,,,0.05518585,1.859592,1.264358,,44.8235181620417,59.5738918302971,24.362362015953
0.077, 15.53,15.53,,,0.02330998,1.787806,1.272991,,,0.05408515,1.858522,1.263946,,44.8235181620417,59.7325844410572,24.3295975994162
0.097, 15.57,15.57,,,0.02023324,1.78527,1.272306,,,0.0512011,1.856163,1.263494,,44.8235181620417,59.8974856936,24.3585695535219
0.103, 14.82,14.82,,,0.01694441,1.785246,1.271218,,,0.04667809,1.852627,1.263016,,44.8235181620417,60.1541163841435,24.5308286271434
0.11, 15.09,15.09,,,0.01511632,1.783525,1.271655,,,0.04548267,1.852086,1.263446,,44.8235181620417,60.2761240498923,24.5820396765678
0.122, 14.99,14.99,,,0.01281386,1.782419,1.27172,,,0.04307465,1.850534,1.263659,,44.8235181620417,60.3698069219412,24.6273818861112
0.134, 15.29,15.29,,,0.01233146,1.781284,1.272149,,,0.04317995,1.850744,1.263851,,44.8235181620417,60.3337162033712,24.6341676788627
0.144, 15.51,15.51,,,0.01390534,1.781667,1.272659,,,0.04504273,1.852194,1.264038,,44.8235181620417,60.1500114405665,24.5474225712702
0.155, 16.47,16.47,,,0.01383537,1.779299,1.274565,,,0.04667751,1.854246,1.265306,,44.8235181620417,59.9765724517988,24.4121370181444
0.166, 16.69,16.69,,,0.0134008,1.778321,1.27502,,,0.0465279,1.854322,1.265562,,44.8235181620417,59.8543257294357,24.3169122309332
0.178, 16.72,16.72,,,0.0134895,1.778255,1.275015,,,0.04666003,1.854403,1.265545,,44.8235181620417,59.8449615403442,24.3034977397766
0.188, 16.32,16.32,,,0.01321875,1.778947,1.27414,,,0.04562982,1.853246,1.264939,,44.8235181620417,59.8849659571998,24.3252040803549
0.2, 16.14,16.14,,,0.01310304,1.778957,1.273359,,,0.0451857,1.852468,1.264283,,44.8235181620417,59.9039812033199,24.3302942786922
0.211, 16.01,16.01,,,0.01250003,1.778871,1.273165,,,0.04431617,1.851795,1.264201,,44.8235181620417,59.9123891659542,24.3167961177206
0.221, 15.9,15.9,,,0.01255121,1.778782,1.272429,,,0.0441336,1.851209,1.263554,,44.8235181620417,59.9130243735294,24.3012745132637
0.233, 15.94,15.94,,,0.01192074,1.778169,1.272388,,,0.04358774,1.850783,1.263499,,44.8235181620417,59.9175527888231,24.3019131359333
0.244, 15.69,15.69,,,0.01128029,1.778173,1.271737,,,0.04244108,1.849618,1.262997,,44.8235181620417,59.9222109777074,24.3034482209065
0.255, 15.43,15.43,,,0.01063636,1.778163,1.271046,,,0.04127813,1.848418,1.262463,,44.8235181620417,59.9263227514733,24.3013240321338
0.266, 15.4,15.4,,,0.01017042,1.777436,1.270401,,,0.04072552,1.847585,1.261838,,44.8235181620417,59.9046915429738,24.2734346629814
0.277, 15.31,15.31,,,0.009481963,1.7758,1.26848,,,0.03973772,1.845579,1.259988,,44.8235181620417,59.8314650869198,24.177963988967
0.288, 15.4,15.4,,,0.008977577,1.774056,1.267216,,,0.03926714,1.844326,1.258687,,44.8235181620417,59.7325093089784,24.0563985779547
0.299, 15.36,15.36,,,0.007924363,1.77102,1.264048,,,0.03796657,1.841196,1.255561,,44.8235181620417,59.6194628511713,23.9149914679556
0.31, 15.23,15.23,,,0.007009413,1.768891,1.261404,,,0.03672183,1.838519,1.25302,,44.8235181620417,59.5756676794319,23.8454533139508
0.321, 15.08,15.08,,,0.005635638,1.767064,1.259324,,,0.03506371,1.835968,1.25107,,44.8235181620417,59.6077149261258,23.8541276539553
0.332, 14.7,14.7,,,0.00362996,1.764524,1.255737,,,0.03235587,1.831731,1.247786,,44.8235181620417,59.6619602870045,23.8514263142137
0.343, 14.43,14.43,,,0.001660846,1.760672,1.250765,,,0.02987365,1.826655,1.24309,,44.8235181620417,59.7219566670044,23.8344618323348
0.355, 13.84,13.84,,,-0.001593102,1.756299,1.244678,,,0.02547996,1.819545,1.237428,,44.8235181620417,59.7884758774801,23.8365484550682
0.366, 13.46,13.46,,,-0.004950576,1.752134,1.240143,,,0.02143823,1.813649,1.233132,,44.8235181620417,59.8451322950687,23.8716539188778
0.377, 13.09,13.09,,,-0.008579474,1.746912,1.234319,,,0.01716782,1.806683,1.227551,,44.8235181620417,59.9401812049136,23.9459236862985
0.388, 12.42,12.42,,,-0.01352852,1.741697,1.228333,,,0.01100893,1.798388,1.221979,,44.8235181620417,60.0584049459675,24.0279064446248
0.4, 11.76,11.76,,,-0.01847662,1.735649,1.221182,,,0.004836842,1.789308,1.215311,,44.8235181620417,60.1997215559626,24.074662503287
0.41, 11.4,11.4,,,-0.02374753,1.72807,1.213748,,,-0.001127183,1.780088,1.208235,,44.8235181620417,60.3089499381299,24.0546637099537
0.421, 11.23,11.23,,,-0.02921995,1.719574,1.206258,,,-0.006984115,1.770839,1.201012,,44.8235181620417,60.3621161291498,23.9637726776504
0.432, 11.12,11.12,,,-0.03449157,1.710939,1.198758,,,-0.01253752,1.761773,1.193744,,44.8235181620417,60.3854275641383,23.8388297381875
0.443, 11.13,11.13,,,-0.0398417,1.701314,1.190611,,,-0.0180258,1.752265,1.185786,,44.8235181620417,60.33854514698,23.6259481156078
0.454, 11.12,11.12,,,-0.04522622,1.691742,1.182508,,,-0.02356544,1.74275,1.17787,,44.8235181620417,60.2951529563904,23.4229446538403
0.466, 11.15,11.15,,,-0.05118396,1.681418,1.174065,,,-0.02963918,1.732636,1.16964,,44.8235181620417,60.2536868790931,23.1908189738096
0.476, 11.29,11.29,,,-0.05719358,1.670373,1.165173,,,-0.03555515,1.722327,1.160977,,44.8235181620417,60.2364474821077,22.9427328496801
0.488, 11.48,11.48,,,-0.06290015,1.659743,1.156866,,,-0.0411215,1.712677,1.152896,,44.8235181620417,60.1873452535309,22.6514799311972
0.499, 11.67,11.67,,,-0.06887698,1.648946,1.14867,,,-0.04699962,1.702889,1.144932,,44.8235181620417,60.1035866460699,22.3235523129866
0.51, 12.07,12.07,,,-0.07436207,1.638321,1.14128,,,-0.05196767,1.694258,1.137694,,44.8235181620417,60.0334542656238,22.032056922795
0.521, 12.26,12.26,,,-0.08066812,1.627803,1.133728,,,-0.05813812,1.684731,1.130391,,44.8235181620417,59.999658490551,21.7701140527723
0.532, 12.26,12.26,,,-0.08706456,1.618026,1.126331,,,-0.06475043,1.675022,1.123273,,44.8235181620417,59.9653572814937,21.5296248063357
0.544, 12.26,12.26,,,-0.09299965,1.608961,1.119501,,,-0.0708624,1.666065,1.116718,,44.8235181620417,59.9488077335953,21.3113251363476
0.554, 12.33,12.33,,,-0.09937838,1.599852,1.113435,,,-0.07732597,1.657375,1.110892,,44.8235181620417,59.9019662975708,21.0745515127161
0.566, 12.46,12.46,,,-0.1049496,1.590635,1.106765,,,-0.08291723,1.648865,1.104448,,44.8235181620417,59.8235352375141,20.8046463498901
0.577, 12.83,12.83,,,-0.1100342,1.581783,1.10147,,,-0.08769839,1.641857,1.099319,,44.8235181620417,59.6667345891015,20.4594588441271
0.588, 13.1,13.1,,,-0.1142518,1.573435,1.095671,,,-0.09182826,1.634958,1.093692,,44.8235181620417,59.4682151463994,20.0766250442539
0.599, 13.62,13.62,,,-0.1180533,1.565618,1.091626,,,-0.09520864,1.629755,1.089714,,44.8235181620417,59.1906362662544,19.6491764499637
0.61, 14.21,14.21,,,-0.1214679,1.558051,1.08789,,,-0.09806514,1.625111,1.086003,,44.8235181620417,58.9374275003899,19.2773426694428
0.621, 14.34,14.34,,,-0.1247063,1.552779,1.08481,,,-0.101417,1.620554,1.08291,,44.8235181620417,58.7136500188399,19.0039575253315
