経過時間(s),めり込み量(mm),Y軸めり込み量(mm),,デバイス先端,X座標,Y座標,Z座標,,仮想物体との接触位置,X座標,Y座標,Z座標,,接触点の法線と床の法線とのなす角,接触点の法線とデバイスの方向ベクトルのなす角,床の法線とデバイスの方向ベクトルのなす角
0.001, 0.93,-0.93,,,0.3934639,1.637958,1.265336,,,0.3924276,1.633426,1.26521,,45.0005395849294,32.1534117363137,13.0036740724888
0.014, 0.64,-0.64,,,0.3937412,1.635922,1.265571,,,0.393034,1.63282,1.265482,,45.0005395849294,32.1945670400124,12.9735734296542
0.021, 0.84,-0.84,,,0.3940299,1.636832,1.266279,,,0.393097,1.632756,1.26617,,45.0005395849294,32.1378491507229,13.0112905869751
0.033, 0.84,-0.84,,,0.3939557,1.636924,1.266539,,,0.3930188,1.632835,1.266432,,45.0005395849294,32.1250766973304,13.0172652947853
0.044, 0.85,-0.85,,,0.393979,1.636957,1.266726,,,0.3930314,1.632822,1.26662,,45.0005395849294,32.1222968104156,13.0160068324657
0.055, 0.78,-0.78,,,0.3941724,1.636333,1.267031,,,0.3933063,1.632547,1.266936,,45.0005395849294,32.1436753019228,12.9881225859551
0.066, 0.82,-0.82,,,0.3950119,1.635773,1.268289,,,0.3940952,1.631758,1.268194,,45.0005395849294,32.162523208413,12.9555955184853
0.077, 0.84,-0.84,,,0.3950226,1.635859,1.268676,,,0.3940875,1.631766,1.268584,,45.0005395849294,32.1532068306443,12.9571032827027
0.088, 0.92,-0.92,,,0.3952763,1.636062,1.268887,,,0.3942524,1.631601,1.268788,,45.0005395849294,32.095604431882,13.0099407708779
0.1, 0.97,-0.97,,,0.3947794,1.636915,1.269001,,,0.3936839,1.63217,1.268897,,45.0005395849294,32.0206089568822,13.0818182646084
0.111, 1.06,-1.06,,,0.393647,1.638554,1.268676,,,0.392444,1.63341,1.26856,,45.0005395849294,31.8606425158773,13.2465581539365
0.122, 1.28,-1.28,,,0.3935776,1.639996,1.268346,,,0.3921058,1.633747,1.268201,,45.0005395849294,31.7690360212783,13.3436356299085
0.133, 1.47,-1.47,,,0.3927155,1.642009,1.26865,,,0.3910191,1.634834,1.268488,,45.0005395849294,31.7191722266302,13.387616070524
0.144, 1.91,-1.91,,,0.3926746,1.644698,1.269015,,,0.3904702,1.635383,1.268828,,45.0005395849294,31.7032681315904,13.383692126955
0.156, 2.38,-2.38,,,0.3922001,1.64797,1.269583,,,0.3894636,1.63639,1.269387,,45.0005395849294,31.7174749246687,13.3479557244383
0.167, 3,-3,,,0.3914416,1.652421,1.27055,,,0.388014,1.637839,1.270364,,45.0005395849294,31.7790559085119,13.2625553103012
0.179, 3.47,-3.47,,,0.3905207,1.656156,1.270768,,,0.3865692,1.639284,1.270591,,45.0005395849294,31.8233701746138,13.2077080390186
0.188, 3.75,-3.75,,,0.3890207,1.659387,1.270386,,,0.384735,1.641118,1.270211,,45.0005395849294,31.8015511359173,13.2256022803724
0.199, 4.03,-4.03,,,0.3874741,1.662629,1.269965,,,0.3828558,1.642998,1.269791,,45.0005395849294,31.7652589267724,13.2589677535395
0.21, 4.23,-4.23,,,0.3846004,1.66671,1.26918,,,0.379711,1.646142,1.268996,,45.0005395849294,31.6311754869071,13.3932347547336
0.221, 4.43,-4.43,,,0.3817664,1.670787,1.267827,,,0.3765968,1.649257,1.267634,,45.0005395849294,31.5021907831153,13.5219872321001
0.233, 4.55,-4.55,,,0.378561,1.674739,1.267,,,0.3732177,1.652636,1.266799,,45.0005395849294,31.413914005644,13.6107523680834
0.243, 4.66,-4.66,,,0.3760693,1.67791,1.266779,,,0.3706005,1.655253,1.266605,,45.0005395849294,31.4326867800554,13.5867425462717
0.255, 4.79,-4.79,,,0.3739399,1.680735,1.266312,,,0.3683927,1.657461,1.266188,,45.0005395849294,31.5956311834555,13.416729751051
0.266, 4.95,-4.95,,,0.3726718,1.682939,1.266226,,,0.3670125,1.658841,1.266174,,45.0005395849294,31.7841922106248,13.2211378981004
0.277, 5.14,-5.14,,,0.3709728,1.685728,1.266318,,,0.365188,1.660665,1.266357,,45.0005395849294,32.0028026542114,12.9982696854584
0.288, 5.24,-5.24,,,0.3684925,1.688744,1.266546,,,0.3626465,1.663207,1.266648,,45.0005395849294,32.1067034889744,12.8939112280338
0.299, 5.11,-5.11,,,0.3651258,1.691321,1.265314,,,0.3594207,1.666433,1.265424,,45.0005395849294,32.0901436957925,12.910567497635
0.31, 4.78,-4.78,,,0.3605772,1.693956,1.263935,,,0.3551965,1.670657,1.264004,,45.0005395849294,31.9961124841056,13.0044475913908
0.322, 4.44,-4.44,,,0.3565632,1.695946,1.262278,,,0.35153,1.674323,1.262297,,45.0005395849294,31.8965829702898,13.104928209022
0.333, 3.96,-3.96,,,0.3525599,1.697044,1.261191,,,0.3480744,1.677779,1.261165,,45.0005395849294,31.893294234296,13.1107415536176
0.344, 3.73,-3.73,,,0.3502775,1.697935,1.26124,,,0.3460907,1.679763,1.261222,,45.0005395849294,32.0255881646485,12.9779993921132
0.355, 3.67,-3.67,,,0.348418,1.699414,1.261931,,,0.3443536,1.6815,1.261949,,45.0005395849294,32.2165158522994,12.7849671524828
0.366, 3.56,-3.56,,,0.3467201,1.700374,1.263239,,,0.3428472,1.683006,1.263319,,45.0005395849294,32.4302597862379,12.5704915345499
0.377, 3.38,-3.38,,,0.3445535,1.701468,1.264239,,,0.3409122,1.684941,1.264361,,45.0005395849294,32.576651226645,12.4264795612287
0.388, 3.23,-3.23,,,0.3425017,1.702579,1.26447,,,0.3390462,1.686807,1.264598,,45.0005395849294,32.64494970135,12.3592645252506
0.4, 2.88,-2.88,,,0.3392473,1.703783,1.264674,,,0.3361577,1.689696,1.264777,,45.0005395849294,32.6318733045479,12.3711772286053
0.411, 2.54,-2.54,,,0.3364972,1.704478,1.264057,,,0.3337554,1.692098,1.264111,,45.0005395849294,32.5131441295095,12.4875440120302
0.422, 2.11,-2.11,,,0.3326766,1.705764,1.263604,,,0.3303814,1.695472,1.263625,,45.0005395849294,32.4286239559772,12.5722332327398
0.433, 1.85,-1.85,,,0.3304546,1.706438,1.263784,,,0.328436,1.697417,1.263794,,45.0005395849294,32.3868231994199,12.6145556449804
0.444, 1.76,-1.76,,,0.3293265,1.707059,1.264601,,,0.3274024,1.698451,1.264615,,45.0005395849294,32.4004835773798,12.6005366820991
0.456, 1.8,-1.8,,,0.3282864,1.708282,1.264922,,,0.3263331,1.69952,1.264945,,45.0005395849294,32.4326981637037,12.567933628777
0.466, 1.65,-1.65,,,0.3256297,1.710088,1.266118,,,0.3238403,1.702013,1.266153,,45.0005395849294,32.5061090348601,12.4945859368686
0.478, 1.52,-1.52,,,0.3230199,1.711914,1.266853,,,0.3213811,1.704472,1.266901,,45.0005395849294,32.5820300004667,12.4200344241525
0.489, 1.48,-1.48,,,0.3202613,1.714411,1.267563,,,0.3186761,1.707177,1.267625,,45.0005395849294,32.6427981918213,12.3621835772659
0.5, 1.45,-1.45,,,0.3186938,1.715803,1.267642,,,0.3171355,1.708718,1.267706,,45.0005395849294,32.5986102842155,12.4069759565964
0.511, 1.51,-1.51,,,0.3177372,1.717101,1.266747,,,0.3161123,1.709741,1.266808,,45.0005395849294,32.554173074712,12.4503425339773
0.522, 1.55,-1.55,,,0.316104,1.71897,1.266192,,,0.3144316,1.711422,1.266246,,45.0005395849294,32.5097700161534,12.4930388990646
0.532, 1.51,-1.51,,,0.3146833,1.7202,1.265883,,,0.3130433,1.71281,1.265931,,45.0005395849294,32.488948185048,12.5131042867404
0.544, 1.49,-1.49,,,0.3126867,1.722082,1.2658,,,0.311066,1.714787,1.265846,,45.0005395849294,32.4755405240804,12.5264641363852
0.555, 1.7,-1.7,,,0.3106788,1.725299,1.264923,,,0.3088368,1.717017,1.264985,,45.0005395849294,32.4641170330114,12.5392750095907
0.566, 1.84,-1.84,,,0.3082331,1.72857,1.265153,,,0.3062422,1.719611,1.265243,,45.0005395849294,32.4748438448044,12.5328392640244
0.578, 1.89,-1.89,,,0.3052628,1.731833,1.265495,,,0.3032231,1.72263,1.265613,,45.0005395849294,32.5100227331457,12.5053161637561
0.588, 1.83,-1.83,,,0.3032403,1.733527,1.265065,,,0.3012714,1.724582,1.265187,,45.0005395849294,32.5945463217725,12.4233846318471
0.599, 1.66,-1.66,,,0.3018692,1.733876,1.264834,,,0.3000946,1.725759,1.264941,,45.0005395849294,32.6750537592791,12.341333571631
0.611, 1.6,-1.6,,,0.3005793,1.734805,1.264624,,,0.2988798,1.726974,1.264723,,45.0005395849294,32.7625723857736,12.2522747375215
0.622, 1.51,-1.51,,,0.2982091,1.736634,1.264731,,,0.2966083,1.729245,1.264828,,45.0005395849294,32.7824960470281,12.2336897933071
0.633, 1.61,-1.61,,,0.2962043,1.739224,1.265014,,,0.2944976,1.731356,1.265125,,45.0005395849294,32.7704544238565,12.2490560109647
0.644, 1.6,-1.6,,,0.2928633,1.742535,1.264907,,,0.2911595,1.734694,1.265031,,45.0005395849294,32.7500184984285,12.2760685546068
0.656, 1.81,-1.81,,,0.2908145,1.745793,1.265326,,,0.2888921,1.736961,1.265476,,45.0005395849294,32.7315804032771,12.300346461336
0.666, 1.82,-1.82,,,0.2882262,1.748438,1.265241,,,0.2862924,1.739561,1.265407,,45.0005395849294,32.7251190445021,12.3147496223475
0.678, 1.92,-1.92,,,0.2862639,1.75103,1.264982,,,0.2842168,1.741637,1.265169,,45.0005395849294,32.7237598368951,12.322625684015
0.689, 1.93,-1.93,,,0.2838554,1.753501,1.265146,,,0.2818004,1.744053,1.265341,,45.0005395849294,32.7470849322616,12.3033602822234
0.7, 2.05,-2.05,,,0.282288,1.755769,1.26432,,,0.2801168,1.745737,1.264524,,45.0005395849294,32.8061660669381,12.2427440625736
0.711, 2.08,-2.08,,,0.2814393,1.756764,1.263474,,,0.2792526,1.746601,1.263676,,45.0005395849294,32.874659202029,12.1718415783201
0.722, 2.22,-2.22,,,0.2794634,1.759568,1.263305,,,0.2771441,1.748709,1.263518,,45.0005395849294,32.95999216805,12.0853696782867
0.734, 2.37,-2.37,,,0.2785693,1.761364,1.263098,,,0.2761006,1.749753,1.263339,,45.0005395849294,33.0155557554018,12.0364689402848
0.744, 2.62,-2.62,,,0.2767887,1.764571,1.26315,,,0.2740721,1.751781,1.26344,,45.0005395849294,33.0303943409608,12.0331930108953
0.756, 2.83,-2.83,,,0.2754429,1.76721,1.263073,,,0.2724974,1.753356,1.263409,,45.0005395849294,33.022310812303,12.0519674928539
0.767, 3.05,-3.05,,,0.2727403,1.771221,1.26333,,,0.2695598,1.756294,1.26373,,45.0005395849294,33.0028481888046,12.0908978624924
0.778, 3.28,-3.28,,,0.2714773,1.773801,1.262548,,,0.2680703,1.757783,1.263004,,45.0005395849294,33.0260503407695,12.0810308007372
0.789, 3.42,-3.42,,,0.2698683,1.776256,1.262342,,,0.2663229,1.759531,1.262837,,45.0005395849294,33.0686843803823,12.048925497437
0.8, 3.55,-3.55,,,0.2689611,1.77792,1.262228,,,0.2652965,1.760557,1.262737,,45.0005395849294,33.1182920429437,11.9971176602505
0.811, 3.63,-3.63,,,0.2682931,1.779069,1.261875,,,0.2645454,1.761308,1.262382,,45.0005395849294,33.1188111373062,11.9898375325715
0.822, 3.68,-3.68,,,0.2666407,1.781005,1.261573,,,0.2628298,1.763024,1.262076,,45.0005395849294,33.0673354180588,12.0363545346194
0.833, 3.66,-3.66,,,0.2646541,1.78292,1.261019,,,0.2608521,1.765001,1.261527,,45.0005395849294,33.0543614740914,12.0519512711551
0.844, 3.78,-3.78,,,0.2627375,1.785539,1.261532,,,0.2588111,1.767042,1.262084,,45.0005395849294,33.0531047193191,12.06653201708
0.856, 3.93,-3.93,,,0.26108,1.788033,1.261392,,,0.2570175,1.768836,1.261992,,45.0005395849294,33.0926685889854,12.0403655630979
0.867, 3.99,-3.99,,,0.259047,1.790427,1.261253,,,0.2549441,1.770909,1.261892,,45.0005395849294,33.1734492340512,11.9748025790794
0.878, 4.04,-4.04,,,0.2574854,1.792261,1.261686,,,0.2533489,1.772504,1.262358,,45.0005395849294,33.2228588211321,11.938570134088
0.889, 3.96,-3.96,,,0.2557621,1.793495,1.261902,,,0.2517177,1.774136,1.262574,,45.0005395849294,33.2506303695246,11.9187762464241
0.9, 3.93,-3.93,,,0.2537816,1.795336,1.261096,,,0.2497611,1.776092,1.261761,,45.0005395849294,33.2493906902248,11.9182136096069
0.911, 3.8,-3.8,,,0.2518516,1.796496,1.260722,,,0.2479662,1.777887,1.261353,,45.0005395849294,33.2548855772591,11.9059371986891
0.922, 3.69,-3.69,,,0.2493801,1.798277,1.260494,,,0.2456186,1.780235,1.261101,,45.0005395849294,33.2708067477714,11.8873334714549
0.934, 3.7,-3.7,,,0.2482338,1.799476,1.260532,,,0.2444671,1.781386,1.261143,,45.0005395849294,33.2860312390077,11.8738797067117
0.945, 3.61,-3.61,,,0.246424,1.800745,1.26013,,,0.2427536,1.7831,1.260739,,45.0005395849294,33.2998213905582,11.8676710649289
0.956, 3.53,-3.53,,,0.243356,1.803342,1.260663,,,0.2397707,1.786083,1.261289,,45.0005395849294,33.3195538065212,11.8671562394346
0.967, 3.65,-3.65,,,0.2414387,1.805956,1.260536,,,0.2377338,1.78812,1.26121,,45.0005395849294,33.3251135803509,11.8795222965827
0.978, 3.58,-3.58,,,0.2390559,1.807923,1.260498,,,0.2354272,1.790426,1.261189,,45.0005395849294,33.3481552228748,11.8772990700698
0.99, 3.57,-3.57,,,0.2377406,1.809191,1.260524,,,0.2341178,1.791736,1.261216,,45.0005395849294,33.3409493735009,11.8867196082204
1, 3.44,-3.44,,,0.235778,1.810426,1.26037,,,0.2322777,1.793576,1.261035,,45.0005395849294,33.3299220333928,11.8945427359233
1.011, 3.32,-3.32,,,0.2338921,1.81156,1.259976,,,0.2305225,1.795331,1.260603,,45.0005395849294,33.3330673354181,11.8812136221289
1.022, 3.19,-3.19,,,0.2314075,1.813264,1.259454,,,0.2281758,1.797678,1.260039,,45.0005395849294,33.3451977510464,11.856672753124
1.034, 3.08,-3.08,,,0.2295362,1.814494,1.259421,,,0.2264156,1.799438,1.259987,,45.0005395849294,33.3489885059303,11.8537972435634
1.045, 3.08,-3.08,,,0.227603,1.816452,1.259108,,,0.2244763,1.801377,1.259689,,45.0005395849294,33.3445522981878,11.8695143621799
1.056, 2.86,-2.86,,,0.2242737,1.818485,1.259394,,,0.2213641,1.804489,1.259949,,45.0005395849294,33.3211520707425,11.9055401939546
1.067, 2.86,-2.86,,,0.2216013,1.821131,1.259152,,,0.2186931,1.80716,1.259725,,45.0005395849294,33.3118835042968,11.9320302281397
1.078, 2.78,-2.78,,,0.2192498,1.823036,1.258942,,,0.2164248,1.809429,1.259519,,45.0005395849294,33.3465876945039,11.9156505811922
1.089, 2.72,-2.72,,,0.2177516,1.824165,1.259135,,,0.2150012,1.810852,1.259707,,45.0005395849294,33.4043335272348,11.866741305454
1.101, 2.84,-2.84,,,0.2173097,1.825333,1.259206,,,0.2144397,1.811414,1.259806,,45.0005395849294,33.4265657923645,11.8464624743726
1.112, 2.83,-2.83,,,0.2159071,1.826652,1.259884,,,0.2130467,1.812807,1.260485,,45.0005395849294,33.4058293386214,11.8709256499779
1.123, 2.89,-2.89,,,0.2141453,1.828758,1.260015,,,0.2112093,1.814644,1.260633,,45.0005395849294,33.3286242974866,11.9530723328397
1.134, 2.87,-2.87,,,0.2110277,1.831801,1.260132,,,0.208065,1.817788,1.260754,,45.0005395849294,33.1445609497605,12.1420192656864
1.145, 2.89,-2.89,,,0.2075378,1.835473,1.25971,,,0.2044934,1.82136,1.260327,,45.0005395849294,32.9081134676528,12.3650385962596
1.156, 2.73,-2.73,,,0.2049731,1.837119,1.259681,,,0.2020552,1.823798,1.260246,,45.0005395849294,32.7207545537439,12.5329024432724
1.167, 2.63,-2.63,,,0.2028517,1.838667,1.25939,,,0.2000131,1.82584,1.259928,,45.0005395849294,32.5966500199783,12.649301670095
1.178, 2.53,-2.53,,,0.2006126,1.840311,1.259238,,,0.1978545,1.827999,1.259752,,45.0005395849294,32.4483222209953,12.7931898462411
1.19, 2.55,-2.55,,,0.1985954,1.842494,1.259184,,,0.1957846,1.830069,1.259702,,45.0005395849294,32.3284182534524,12.9109337665191
1.201, 2.5,-2.5,,,0.197413,1.843363,1.259772,,,0.1946441,1.831209,1.260279,,45.0005395849294,32.2404590797686,12.9975405627848
1.212, 2.63,-2.63,,,0.1975132,1.844074,1.260291,,,0.1945949,1.831259,1.260841,,45.0005395849294,32.2506292311598,13.0031882752976
1.223, 2.66,-2.66,,,0.1970015,1.844761,1.260723,,,0.1940528,1.831801,1.261294,,45.0005395849294,32.2665025903492,13.0020348271336
1.234, 2.58,-2.58,,,0.1965775,1.844717,1.260869,,,0.193722,1.832131,1.26143,,45.0005395849294,32.3023030258876,12.9730560428389
1.245, 2.6,-2.6,,,0.1967477,1.844634,1.261464,,,0.1938806,1.831973,1.262027,,45.0005395849294,32.3256008004982,12.9488003342239
1.256, 2.39,-2.39,,,0.1954429,1.844668,1.262058,,,0.1928069,1.833046,1.262573,,45.0005395849294,32.3053492901726,12.966741533127
1.267, 2.34,-2.34,,,0.1944001,1.845466,1.262625,,,0.1917986,1.834055,1.26313,,45.0005395849294,32.2415655703834,13.0290866443623
1.279, 1.93,-1.93,,,0.1909321,1.846454,1.262883,,,0.1887705,1.837083,1.263291,,45.0005395849294,32.094050563889,13.1658210513255
1.289, 1.57,-1.57,,,0.1879153,1.847378,1.262635,,,0.1861281,1.839725,1.262954,,45.0005395849294,31.9299962547797,13.3047667319709
1.301, 1.17,-1.17,,,0.1854173,1.847452,1.26239,,,0.184082,1.841771,1.262615,,45.0005395849294,31.8405549300873,13.3700232112589
1.312, 0.9,-0.9,,,0.1838913,1.847375,1.261599,,,0.1828589,1.842994,1.261764,,45.0005395849294,31.8005710037987,13.3880583252604
1.323, 0.64,-0.64,,,0.183055,1.846622,1.261738,,,0.1823283,1.843525,1.261856,,45.0005395849294,31.8609123083421,13.332177134121
1.334, 0.5,-0.5,,,0.1824188,1.846453,1.26212,,,0.1818486,1.844005,1.262215,,45.0005395849294,31.9531505954217,13.2519676636086
1.346, 0.16,0.16,,,0.1799151,1.844963,1.262077,,,0.1800983,1.845755,1.262046,,45.0005395849294,32.0548657697111,13.1528599139624
1.356, 0.89,0.89,,,0.1771955,1.84333,1.26218,,,0.1781849,1.847668,1.262007,,45.0005395849294,32.2195313807341,12.996113053288
1.367, 1.56,1.56,,,0.1740691,1.842445,1.262089,,,0.1757924,1.850061,1.261785,,45.0005395849294,32.3175138567459,12.8990372848633
1.379, 2.59,2.59,,,0.17019,1.840221,1.261326,,,0.1730211,1.852832,1.260843,,45.0005395849294,32.4108518042513,12.7897653602412
1.39, 3.5,3.5,,,0.167161,1.837804,1.260255,,,0.1709579,1.854895,1.259642,,45.0005395849294,32.5304654887626,12.6442797736475
1.401, 4.09,4.09,,,0.1656113,1.835929,1.259349,,,0.169984,1.855869,1.258677,,45.0005395849294,32.6802344576204,12.4730998698849
1.412, 4.73,4.73,,,0.1636861,1.834054,1.259433,,,0.1686761,1.857177,1.258681,,45.0005395849294,32.8672279564188,12.2757953470476
1.423, 5.18,5.18,,,0.1620321,1.833081,1.258796,,,0.1674379,1.858415,1.25797,,45.0005395849294,32.9997746037637,12.1451850582786
1.434, 5.43,5.43,,,0.1600991,1.833613,1.259353,,,0.1657187,1.860135,1.258448,,45.0005395849294,33.0857940037771,12.0757587486183
1.445, 5.59,5.59,,,0.158457,1.834295,1.259325,,,0.1642293,1.861624,1.258345,,45.0005395849294,33.1275537792005,12.0528016296831
1.457, 5.79,5.79,,,0.1564054,1.835176,1.259956,,,0.1623945,1.863459,1.25889,,45.0005395849294,33.1036617781486,12.0969289193617
1.468, 5.81,5.81,,,0.1549874,1.836465,1.259881,,,0.1610062,1.864847,1.258811,,45.0005395849294,33.0866750981555,12.1141742927624
1.479, 5.92,5.92,,,0.1538095,1.836969,1.259558,,,0.1599367,1.865917,1.258484,,45.0005395849294,33.1068207405519,12.0872291972365
1.49, 5.81,5.81,,,0.1533499,1.838104,1.259492,,,0.1593472,1.866506,1.258442,,45.0005395849294,33.1342132134559,12.0589334318398
1.501, 5.81,5.81,,,0.1520323,1.839439,1.25975,,,0.1580333,1.86782,1.25868,,45.0005395849294,33.1209728921183,12.080067744091
1.512, 5.72,5.72,,,0.1511233,1.840823,1.259856,,,0.1570578,1.868796,1.258789,,45.0005395849294,33.0834649093349,12.1221621987744
1.523, 5.77,5.77,,,0.1487261,1.842913,1.259869,,,0.154745,1.871108,1.258785,,45.0005395849294,33.0123387363923,12.1963081690199
1.535, 4.86,4.86,,,0.1459073,1.846381,1.260362,,,0.151026,1.870096,1.259447,,45.0005293396459,57.2062478015329,12.3256010850894
1.546, 3.51,3.51,,,0.143438,1.849111,1.26035,,,0.1471584,1.866229,1.259685,,45.0005293396459,57.2888794278123,12.4092802916035
1.557, 2.64,2.64,,,0.1421158,1.851095,1.26074,,,0.1449215,1.863992,1.260224,,45.0005293396459,57.3015494283701,12.4302404340357
1.568, 2.3,2.3,,,0.1419655,1.852229,1.26119,,,0.1443964,1.863467,1.260727,,45.0005293396459,57.2350643688393,12.3734405824785
1.579, 1.54,1.54,,,0.1414308,1.854597,1.262666,,,0.1430425,1.862113,1.262339,,45.0005293396459,57.1370682324495,12.2950069611009
1.59, 0.85,0.85,,,0.1404428,1.85624,1.263974,,,0.1413244,1.860395,1.263786,,45.0005293396459,57.0159109252288,12.1909234187828
1.601, 0.4,0.4,,,0.1399104,1.857421,1.264569,,,0.1403296,1.8594,1.26448,,45.0005293396459,56.9993067358185,12.1749510218532
1.612, 0.03,0.03,,,0.1391062,1.858072,1.264401,,,0.1391343,1.858205,1.264395,,45.0005293396459,57.0242847369182,12.1962108388269
1.623, 0.7,-0.7,,,0.1375999,1.85936,1.264173,,,0.1368724,1.855943,1.264325,,45.0005293396459,57.0546688325955,12.22282296264
1.634, 1.83,-1.83,,,0.1359039,1.861984,1.264055,,,0.1339965,1.853067,1.264452,,45.0005293396459,57.1092078916003,12.2767430357686
1.646, 2.82,-2.82,,,0.133967,1.863877,1.264106,,,0.1310162,1.850086,1.264725,,45.0005293396459,57.1133333257442,12.2840325549574
1.656, 3.89,-3.89,,,0.1323109,1.86634,1.264471,,,0.1282581,1.847328,1.26535,,45.0005293396459,57.0714642672972,12.2543178178002
1.667, 4.75,-4.75,,,0.1312529,1.868647,1.265244,,,0.1263586,1.845429,1.266371,,45.0005293396459,56.9453892240108,12.1517249642269
1.679, 5.36,-5.36,,,0.1305186,1.870338,1.265887,,,0.1250753,1.844145,1.267244,,45.0005293396459,56.7881958397319,12.0307520721086
1.69, 5.78,-5.78,,,0.1299705,1.871473,1.266644,,,0.1241495,1.84322,1.268162,,45.0005293396459,56.6937718921786,11.9594525831206
1.702, 6.11,-6.11,,,0.1291047,1.871952,1.267346,,,0.1229769,1.842047,1.268964,,45.0005293396459,56.6333759461235,11.9045634769305
