経過時間(s),めり込み量(mm),Y軸めり込み量(mm),,デバイス先端,X座標,Y座標,Z座標,,仮想物体との接触位置,X座標,Y座標,Z座標,,接触点の法線と床の法線とのなす角,接触点の法線とデバイスの方向ベクトルのなす角,床の法線とデバイスの方向ベクトルのなす角
0.001, 0.18,-0.18,,,0.1822718,1.800395,1.218795,,,0.1820512,1.799526,1.218773,,44.8235181620417,37.2307932239972,14.3283892251492
0.011, 1.35,1.35,,,0.1817521,1.793638,1.220857,,,0.1833778,1.800195,1.221045,,44.8235181620417,37.5863694471987,14.0448757645543
0.023, 3.03,3.03,,,0.1814484,1.787171,1.224689,,,0.1850185,1.801908,1.22511,,44.8235181620417,37.7428900578631,13.7399052652788
0.033, 4.48,4.48,,,0.1823415,1.782309,1.230184,,,0.1875161,1.80411,1.23072,,44.8235181620417,37.6963457350592,13.4494975826823
0.044, 5.7,5.7,,,0.1816785,1.778982,1.234441,,,0.1881853,1.806699,1.235051,,44.8235181620417,37.64839780842,13.2933347031657
0.055, 6.65,6.65,,,0.1807021,1.775907,1.236675,,,0.1882764,1.808262,1.237353,,44.8235181620417,37.6177405051835,13.251148040931
0.067, 7.54,7.54,,,0.1788525,1.773244,1.23807,,,0.1874349,1.80997,1.238927,,44.8235181620417,37.7430369069262,13.2435178660668
0.08, 7.97,7.97,,,0.1772074,1.771865,1.237654,,,0.1862964,1.810626,1.238716,,44.8235181620417,37.9103731218403,13.3146457465567
0.088, 8.07,8.07,,,0.1762056,1.771608,1.23715,,,0.1855138,1.810865,1.238271,,44.8235181620417,37.8897596114989,13.4641141870994
0.099, 8.01,8.01,,,0.1748261,1.772628,1.236789,,,0.1841401,1.811555,1.237874,,44.8235181620417,37.7951580790321,13.5747009231
0.11, 8.24,8.24,,,0.1730314,1.773297,1.237941,,,0.1827415,1.813336,1.238994,,44.8235181620417,37.6282931471576,13.7376043453662
0.121, 8.52,8.52,,,0.1706007,1.77365,1.238428,,,0.180829,1.815009,1.239448,,44.8235181620417,37.4131592697617,13.9840247571583
0.133, 8.72,8.72,,,0.1692273,1.774074,1.239317,,,0.1797651,1.816374,1.240314,,44.8235181620417,37.3106449633617,14.0744257234024
0.143, 8.46,8.46,,,0.1704491,1.774464,1.239031,,,0.1806086,1.81553,1.239964,,44.8235181620417,37.3188480203266,13.9767164549498
0.155, 8.37,8.37,,,0.1721172,1.774021,1.239293,,,0.182067,1.814668,1.240202,,44.8235181620417,37.3769831738295,13.8349123402163
0.166, 8.66,8.66,,,0.1739874,1.772326,1.24105,,,0.1841687,1.814422,1.241956,,44.8235181620417,37.420061175726,13.6726543708087
0.177, 8.91,8.91,,,0.1768682,1.770144,1.242688,,,0.1871337,1.813504,1.243623,,44.8235181620417,37.5701579936548,13.3976863304013
0.188, 8.83,8.83,,,0.1784015,1.769089,1.241982,,,0.1884861,1.812064,1.242939,,44.8235181620417,37.6645341298851,13.2892647643073
0.199, 8.49,8.49,,,0.1774733,1.770022,1.239682,,,0.1872461,1.81131,1.240633,,44.8235181620417,37.6404952797702,13.4037421467056
0.21, 8.33,8.33,,,0.1764971,1.771058,1.238959,,,0.1861692,1.811542,1.239884,,44.8235181620417,37.5678972011024,13.522059802858
0.221, 7.49,7.49,,,0.1771216,1.771767,1.234052,,,0.1859721,1.808168,1.234916,,44.8235181620417,37.4881171787221,13.754334039499
0.233, 6.92,6.92,,,0.177194,1.772545,1.230762,,,0.1855037,1.806126,1.23156,,44.8235181620417,37.366232456375,13.9862010261221
0.244, 6.46,6.46,,,0.1790574,1.771571,1.227577,,,0.1868495,1.802887,1.228324,,44.8235181620417,37.3326415869716,14.0604451803341
0.255, 6.6,6.6,,,0.1808769,1.76921,1.227172,,,0.1887556,1.801261,1.227932,,44.8235181620417,37.4104750054926,13.897939616576
0.266, 6.4,6.4,,,0.1847092,1.766171,1.224996,,,0.1922448,1.797237,1.22573,,44.8235181620417,37.4993494244997,13.7232455805831
0.277, 6.17,6.17,,,0.1929667,1.758615,1.220613,,,0.2000089,1.788632,1.221324,,44.8235181620417,37.7323340007946,13.2949389438023
0.288, 6.07,6.07,,,0.1987464,1.752445,1.21672,,,0.2054857,1.782028,1.217462,,44.8235181620417,37.9969696728226,12.9381426780943
0.299, 5.99,5.99,,,0.2043246,1.74592,1.212236,,,0.2108312,1.775123,1.213041,,44.8235181620417,38.2630260241584,12.6866918321185
0.31, 5.68,5.68,,,0.2077613,1.741357,1.206787,,,0.213911,1.769093,1.207594,,44.8235181620417,38.36566327396,12.6398008772239
0.321, 5.34,5.34,,,0.2094122,1.737892,1.200892,,,0.2153078,1.763909,1.201659,,44.8235181620417,38.2416850986905,12.9067306389756
0.333, 5.09,5.09,,,0.2100682,1.734161,1.194422,,,0.2158701,1.758942,1.195198,,44.8235181620417,38.107502621085,13.3255561196786
0.343, 4.77,4.77,,,0.212048,1.729507,1.187283,,,0.2176075,1.752667,1.188061,,44.8235181620417,38.0459796938482,13.6619728090177
0.355, 4.74,4.74,,,0.2155123,1.722925,1.181219,,,0.2210979,1.745962,1.182069,,44.8235181620417,38.1331841316496,13.8199516650293
0.366, 4.84,4.84,,,0.2202404,1.714869,1.175169,,,0.2258791,1.738374,1.176119,,44.8235181620417,38.3730535384363,13.71677995294
0.377, 5.19,5.19,,,0.2276036,1.704088,1.169837,,,0.23347,1.729352,1.170951,,44.8235181620417,38.7680911784694,13.3470234036425
0.388, 5.54,5.54,,,0.2353794,1.693196,1.164687,,,0.24142,1.720207,1.165968,,44.8235181620417,39.1752763096034,12.9309112155118
0.399, 5.91,5.91,,,0.2427686,1.682516,1.159552,,,0.249002,1.711343,1.161014,,44.8235181620417,39.5494647977752,12.5820669973237
0.411, 6.03,6.03,,,0.2483226,1.673839,1.153653,,,0.2546117,1.703297,1.155245,,44.8235181620417,39.7882413743251,12.4837686250716
0.422, 6.01,6.01,,,0.2525993,1.666293,1.146979,,,0.2588606,1.695632,1.148654,,44.8235181620417,39.9347181920945,12.5244645985613
0.433, 5.8,5.8,,,0.2555606,1.659991,1.139451,,,0.2616892,1.688301,1.141116,,44.8235181620417,39.9246504935381,12.7106171303416
0.444, 5.6,5.6,,,0.259413,1.653618,1.13278,,,0.2654042,1.680944,1.134427,,44.8235181620417,39.9121922288386,12.8781693499823
0.455, 5.61,5.61,,,0.2635484,1.646557,1.126947,,,0.2696034,1.673874,1.128626,,44.8235181620417,39.8989143414616,13.0226466299278
0.466, 5.62,5.62,,,0.2682332,1.639168,1.121228,,,0.2743321,1.66654,1.122984,,44.8235181620417,39.9948784966299,13.1257585778636
0.477, 5.69,5.69,,,0.2728906,1.63137,1.115217,,,0.2790489,1.659069,1.117135,,44.8235181620417,40.2494703757628,13.1845204012053
0.488, 5.85,5.85,,,0.278583,1.62279,1.109834,,,0.2848753,1.651285,1.111953,,44.8235181620417,40.53654321859,13.1974798310211
0.499, 6.04,6.04,,,0.2846581,1.61413,1.104903,,,0.2910854,1.64354,1.10721,,44.8235181620417,40.7993654754438,13.1590122066861
0.511, 6.16,6.16,,,0.2905709,1.606242,1.100478,,,0.2970746,1.636268,1.102915,,44.8235181620417,40.9841903892411,13.1135265631741
0.521, 6.14,6.14,,,0.2968201,1.599154,1.096482,,,0.3032645,1.629091,1.098955,,44.8235181620417,41.0923191109826,13.0757820850973
0.533, 6.24,6.24,,,0.3021626,1.591565,1.091766,,,0.3086932,1.621983,1.094332,,44.8235181620417,41.1900830209471,13.0820598825435
0.544, 6.32,6.32,,,0.306587,1.584714,1.087036,,,0.3132026,1.615508,1.089684,,44.8235181620417,41.2642554581748,13.1238034362681
0.555, 6.46,6.46,,,0.3106787,1.577932,1.082471,,,0.3174536,1.609369,1.085253,,44.8235181620417,41.364485066361,13.2112947420067
0.566, 6.36,6.36,,,0.3146914,1.571738,1.076911,,,0.3213903,1.6027,1.079759,,44.8235181620417,41.5061534310885,13.3293187000329
経過時間(s),めり込み量(mm),Y軸めり込み量(mm),,デバイス先端,X座標,Y座標,Z座標,,仮想物体との接触位置,X座標,Y座標,Z座標,,接触点の法線と床の法線とのなす角,接触点の法線とデバイスの方向ベクトルのなす角,床の法線とデバイスの方向ベクトルのなす角
0.001, 0.41,-0.41,,,0.1727313,1.80661,1.216068,,,0.1720397,1.804693,1.216069,,44.8235181620417,33.3539677136967,19.8426108169703
0.011, 0.45,-0.45,,,0.1739355,1.805857,1.215879,,,0.1731833,1.803751,1.21588,,44.8235181620417,33.4650197563216,19.652000733107
0.022, 1.23,1.23,,,0.1754816,1.796732,1.218446,,,0.1775193,1.802512,1.218464,,44.8235181620417,33.7307755793423,19.4255458174769
0.033, 2.77,2.77,,,0.177921,1.788525,1.222084,,,0.1824652,1.801594,1.222112,,44.8235181620417,33.7894639781525,19.1760731649844
0.044, 4.13,4.13,,,0.1795537,1.782064,1.225937,,,0.1862974,1.801595,1.225946,,44.8235181620417,33.7607805995312,19.0503635368085
0.054, 5.32,5.32,,,0.1801922,1.776674,1.228812,,,0.1888735,1.801792,1.2288,,44.8235181620417,33.708253031181,19.0679854243767
0.066, 6.5,6.5,,,0.1804532,1.771164,1.231085,,,0.1911066,1.801869,1.231143,,44.8235181620417,33.7939343368399,19.1375047953618
0.077, 7.45,7.45,,,0.1808596,1.765933,1.231822,,,0.1930896,1.801115,1.232059,,44.8235181620417,34.0156388560344,19.1782878537611
0.088, 8.29,8.29,,,0.1818335,1.761025,1.232644,,,0.1954008,1.800204,1.233082,,44.8235181620417,34.2624101687854,19.1191213417223
0.1, 8.69,8.69,,,0.1827125,1.758056,1.232426,,,0.1968921,1.799125,1.233046,,44.8235181620417,34.4773459707008,19.0774230379998
0.111, 8.77,8.77,,,0.1844597,1.756942,1.233264,,,0.1987894,1.798368,1.233874,,44.8235181620417,34.4448171956838,19.1091612186423
0.122, 8.82,8.82,,,0.1850964,1.757008,1.234591,,,0.1995968,1.798639,1.235064,,44.8235181620417,34.2280987144446,19.222866789686
0.132, 8.61,8.61,,,0.1853306,1.758927,1.236101,,,0.1996815,1.799519,1.236394,,44.8235181620417,33.9105324929165,19.4807764331159
0.143, 8.46,8.46,,,0.1847783,1.760119,1.236136,,,0.1990666,1.799919,1.236345,,44.8235181620417,33.6964709551905,19.7552373319916
0.154, 8.39,8.39,,,0.184082,1.760818,1.235921,,,0.1983917,1.800254,1.236142,,44.8235181620417,33.6331209524016,19.9514157274208
0.165, 8.14,8.14,,,0.1852604,1.760704,1.2348,,,0.1991376,1.798963,1.235063,,44.8235181620417,33.6980179929945,19.9460301234101
0.175, 8.07,8.07,,,0.1855465,1.760368,1.233917,,,0.1991408,1.798355,1.234207,,44.8235181620417,33.8381939614299,19.7013232352784
0.187, 8,8,,,0.1869179,1.759276,1.233143,,,0.2003283,1.796983,1.233454,,44.8235181620417,33.9159044365493,19.5898101548973
0.199, 7.67,7.67,,,0.1919478,1.756973,1.232088,,,0.2046309,1.793189,1.232391,,44.8235181620417,34.0398552910628,19.313204576682
0.21, 7.14,7.14,,,0.1936372,1.758142,1.231049,,,0.2054038,1.791846,1.231265,,44.8235181620417,33.9676123822219,19.2540944137023
0.22, 6.8,6.8,,,0.1941395,1.759341,1.230497,,,0.2054065,1.791404,1.230642,,44.8235181620417,33.8249638853758,19.3678273055018
0.232, 6.02,6.02,,,0.1954146,1.761515,1.228497,,,0.2054849,1.789864,1.228543,,44.8235181620417,33.5993251773288,19.5595660780941
0.242, 5.06,5.06,,,0.1964214,1.764014,1.225194,,,0.2050308,1.787824,1.225204,,44.8235181620417,33.4057063952198,19.8806874129862
0.254, 4.43,4.43,,,0.1970555,1.765171,1.222209,,,0.204657,1.785996,1.222244,,44.8235181620417,33.3948122437968,20.0558322414517
0.265, 3.88,3.88,,,0.1980545,1.765098,1.218426,,,0.2047066,1.783305,1.218489,,44.8235181620417,33.4773140964855,20.0743061950952
0.276, 4.12,4.12,,,0.1985374,1.76317,1.218172,,,0.2055506,1.782544,1.218256,,44.8235181620417,33.5891721014101,19.9057183480505
0.287, 3.91,3.91,,,0.2000945,1.762003,1.216309,,,0.2067063,1.78041,1.216394,,44.8235181620417,33.6616643121487,19.7651257380873
0.299, 2.77,2.77,,,0.2055173,1.759791,1.209055,,,0.2101351,1.772839,1.209115,,44.8235181620417,33.7772208644059,19.4965609998486
0.309, 2.17,2.17,,,0.2089471,1.758097,1.205106,,,0.2125379,1.768332,1.205144,,44.8235181620417,33.8016558654817,19.3383225966557
0.321, 1.67,1.67,,,0.2112329,1.756759,1.201347,,,0.2139857,1.764636,1.201366,,44.8235181620417,33.7629628449103,19.2661770180078
0.332, 1.27,1.27,,,0.2136495,1.755028,1.197997,,,0.2157445,1.761017,1.198007,,44.8235181620417,33.7210562204239,19.2825967923156
0.343, 1.12,1.12,,,0.214376,1.754084,1.196152,,,0.2162342,1.759367,1.196162,,44.8235181620417,33.6926118984169,19.380890041926
0.354, 0.78,0.78,,,0.2158502,1.751715,1.191405,,,0.2171408,1.75537,1.191417,,44.8235181620417,33.7359904286285,19.4500217996865
0.365, 0.34,0.34,,,0.2181228,1.748485,1.185518,,,0.2186959,1.750107,1.185528,,44.8235181620417,33.8622089058834,19.4751227441878
0.376, 0.1,-0.1,,,0.2205957,1.7444,1.178521,,,0.2204278,1.743924,1.178517,,44.8235181620417,34.0668481979116,19.4516832431559
0.388, 0.18,-0.18,,,0.2225701,1.739957,1.173522,,,0.2222649,1.739085,1.17351,,44.8235181620417,34.2979715477094,19.3137936804815
0.399, 0.45,-0.45,,,0.2264977,1.735318,1.168707,,,0.2257636,1.733192,1.168675,,44.8235181620417,34.4758808951646,19.0812359909978
0.41, 0.57,-0.57,,,0.2303831,1.730963,1.165469,,,0.2294669,1.728279,1.16543,,44.8235181620417,34.5252597463951,18.8787055198172
0.421, 0.7,-0.7,,,0.2350166,1.726757,1.163056,,,0.2338965,1.723441,1.163018,,44.8235181620417,34.4790944990796,18.6824741904234
0.432, 0.84,-0.84,,,0.2394119,1.722668,1.16055,,,0.2380855,1.718707,1.160513,,44.8235181620417,34.4303781761802,18.530044862958
0.443, 0.83,-0.83,,,0.2426745,1.718079,1.157372,,,0.2413637,1.714144,1.157338,,44.8235181620417,34.4307982328024,18.4368981607439
0.454, 0.78,-0.78,,,0.2453096,1.712955,1.153197,,,0.2440837,1.709267,1.153161,,44.8235181620417,34.5136108590898,18.4042925461009
0.465, 0.69,-0.69,,,0.2470932,1.707564,1.148122,,,0.246012,1.704306,1.148072,,44.8235181620417,34.7784241160313,18.3867611585367
0.476, 0.59,-0.59,,,0.2499156,1.701307,1.142895,,,0.2489888,1.698499,1.142837,,44.8235181620417,35.0958571488742,18.3188315140366
0.487, 0.44,-0.44,,,0.2529974,1.695145,1.138552,,,0.252319,1.693078,1.138501,,44.8235181620417,35.3185144794315,18.2437865201667
0.498, 0.23,-0.23,,,0.2560738,1.689139,1.134799,,,0.2557143,1.688038,1.134769,,44.8235181620417,35.4627783159714,18.176249611533
0.509, 0.08,0.08,,,0.2584671,1.682576,1.130486,,,0.2585982,1.682979,1.130498,,44.8235181620417,35.5937813406067,18.1153909201744
0.521, 0.24,0.24,,,0.2613932,1.676734,1.126445,,,0.2617696,1.677895,1.12648,,44.8235181620417,35.6820683633615,18.0610209083468
0.532, 0.68,0.68,,,0.2638977,1.669559,1.122343,,,0.264942,1.672798,1.122444,,44.8235181620417,35.7907844813553,17.9722352817965
0.544, 1.07,1.07,,,0.2671098,1.661924,1.117855,,,0.2687236,1.666999,1.118025,,44.8235181620417,35.9974933206444,17.7570006591132
0.554, 1.65,1.65,,,0.2703422,1.653248,1.113488,,,0.2727937,1.661118,1.113777,,44.8235181620417,36.3133861458723,17.4449515227337
0.566, 1.96,1.96,,,0.2753484,1.644941,1.109195,,,0.2781989,1.654322,1.109572,,44.8235181620417,36.6631362178739,17.0745213460481
0.577, 2.57,2.57,,,0.2811379,1.635852,1.106937,,,0.2847692,1.648177,1.107451,,44.8235181620417,36.9684627407499,16.609247165187
0.588, 2.96,2.96,,,0.2871066,1.627705,1.104438,,,0.2911903,1.641932,1.105041,,44.8235181620417,37.1972399206332,16.2179780819236
0.599, 3.34,3.34,,,0.292954,1.620037,1.102402,,,0.2974782,1.636097,1.103077,,44.8235181620417,37.3132950766859,15.9367040695404
0.61, 3.77,3.77,,,0.2974012,1.613308,1.100721,,,0.3024537,1.631453,1.101485,,44.8235181620417,37.4028798353469,15.7672812318929
0.621, 4.05,4.05,,,0.3016793,1.606867,1.098064,,,0.3070816,1.626355,1.098902,,44.8235181620417,37.4804195557417,15.7112207482927
0.632, 4.13,4.13,,,0.3058484,1.601261,1.094907,,,0.3113704,1.621132,1.095806,,44.8235181620417,37.5678801256299,15.7660244771206
0.643, 4.35,4.35,,,0.3085051,1.595713,1.091393,,,0.3143461,1.616622,1.092404,,44.8235181620417,37.6800318286806,15.87187362329
0.655, 4.53,4.53,,,0.3114451,1.589708,1.08725,,,0.3175827,1.611483,1.088372,,44.8235181620417,37.7716314930907,16.0354720172849
0.665, 4.63,4.63,,,0.3138102,1.584601,1.083152,,,0.3201666,1.606823,1.084366,,44.8235181620417,37.8162189667518,16.2845604716473
0.676, 4.74,4.74,,,0.3157904,1.579452,1.078712,,,0.3223743,1.602182,1.08001,,44.8235181620417,37.8437787792859,16.4977716508453
経過時間(s),めり込み量(mm),Y軸めり込み量(mm),,デバイス先端,X座標,Y座標,Z座標,,仮想物体との接触位置,X座標,Y座標,Z座標,,接触点の法線と床の法線とのなす角,接触点の法線とデバイスの方向ベクトルのなす角,床の法線とデバイスの方向ベクトルのなす角
0.001, 0.99,-0.99,,,0.184831,1.804646,1.220396,,,0.1831636,1.800008,1.220567,,44.8235181620417,31.634785241783,19.8473885341618
0.011, 0.87,-0.87,,,0.1813484,1.806017,1.219833,,,0.1798573,1.801937,1.219989,,44.8235181620417,31.4419724219736,20.1553088213029
0.021, 0.61,-0.61,,,0.1788871,1.806448,1.22018,,,0.1778268,1.803586,1.22029,,44.8235181620417,31.3271125489924,20.4025889831328
0.034, 0.29,-0.29,,,0.1768836,1.805876,1.220132,,,0.1763806,1.804532,1.220182,,44.8235181620417,31.3073186613285,20.5837358401645
0.044, 0.01,-0.01,,,0.1775845,1.804306,1.221016,,,0.1775743,1.804278,1.221017,,44.8235181620417,31.4549497810355,20.5724745660838
0.055, 0.38,0.38,,,0.1784841,1.801721,1.221583,,,0.1791543,1.803522,1.221527,,44.8235181620417,31.6296079585362,20.4664529576426
0.066, 0.58,0.58,,,0.1791536,1.800539,1.222271,,,0.1801688,1.803274,1.222192,,44.8235181620417,31.7705284175704,20.4020220774475
0.077, 0.59,0.59,,,0.1788808,1.800727,1.222342,,,0.1799151,1.803503,1.222262,,44.8235181620417,31.7487264543464,20.4708669672709
0.088, 0.29,0.29,,,0.1781699,1.802515,1.221553,,,0.1786712,1.803853,1.221513,,44.8235181620417,31.6302056000719,20.5727170377926
0.1, 0.05,-0.05,,,0.1775011,1.80415,1.220347,,,0.1774153,1.803922,1.220355,,44.8235181620417,31.5678903709134,20.645019710787
0.117, 0.26,-0.26,,,0.1769274,1.805225,1.219484,,,0.176468,1.804005,1.219524,,44.8235181620417,31.4584639132657,20.6927388260954
0.125, 0.59,-0.59,,,0.1786927,1.805799,1.219228,,,0.177655,1.803027,1.219328,,44.8235181620417,31.3512572670365,20.5931461330316
0.133, 0.66,-0.66,,,0.1797809,1.80554,1.219341,,,0.178621,1.802433,1.219453,,44.8235181620417,31.3761908719078,20.5354925078519
0.144, 0.8,-0.8,,,0.1807334,1.805408,1.218981,,,0.1793448,1.801683,1.219117,,44.8235181620417,31.3743877020171,20.5096470727518
0.155, 1.15,-1.15,,,0.1821676,1.806795,1.219318,,,0.1801543,1.801399,1.219526,,44.8235181620417,31.270876188026,20.5360952720294
0.166, 1.51,-1.51,,,0.1827075,1.807929,1.21843,,,0.1800615,1.800886,1.218706,,44.8235181620417,31.1798536745848,20.6689202495751
0.177, 1.82,-1.82,,,0.1823853,1.809394,1.217503,,,0.1791572,1.800906,1.217831,,44.8235181620417,31.1083142752088,20.8985460804391
0.188, 2.24,-2.24,,,0.1822041,1.810596,1.215386,,,0.1781858,1.800136,1.21577,,44.8235181620417,31.1248501627293,21.0797270884157
0.199, 2.54,-2.54,,,0.1819195,1.81074,1.212801,,,0.1773296,1.798897,1.213161,,44.8235181620417,31.3661470790128,21.2247541985741
0.21, 2.81,-2.81,,,0.1822387,1.810377,1.210391,,,0.1771626,1.797293,1.210726,,44.8235181620417,31.5966727872749,21.2310362648884
0.222, 3.07,-3.07,,,0.1844035,1.808893,1.208241,,,0.1788787,1.79455,1.208563,,44.8235181620417,31.8019267963112,21.0854422490446
0.233, 3.32,-3.32,,,0.1869883,1.80831,1.207921,,,0.1810689,1.792811,1.208295,,44.8235181620417,31.787699512666,20.9268384307413
0.244, 3.74,-3.74,,,0.1911182,1.808023,1.20798,,,0.1844988,1.790532,1.208501,,44.8235181620417,31.5807789375186,20.7698601974152
0.255, 4.32,-4.32,,,0.1939711,1.808791,1.206849,,,0.1863559,1.788567,1.207579,,44.8235181620417,31.3126735294888,20.6974533640388
0.266, 4.85,-4.85,,,0.19633,1.808605,1.204367,,,0.1877739,1.785923,1.205258,,44.8235181620417,31.1437185597864,20.7451349133078
0.278, 5.49,-5.49,,,0.1978955,1.80794,1.199531,,,0.1881663,1.782317,1.200551,,44.8235181620417,31.0683201036367,20.871445598114
0.289, 5.57,-5.57,,,0.1971996,1.806364,1.195942,,,0.1872487,1.780363,1.19687,,44.8235181620417,31.2082399399854,21.0033006888246
0.299, 6.44,-6.44,,,0.2004451,1.80122,1.184618,,,0.1888293,1.77122,1.185521,,44.8235181620417,31.3917329669316,21.2061060751116
0.311, 6.82,-6.82,,,0.2036183,1.796129,1.17744,,,0.1912629,1.76435,1.178239,,44.8235181620417,31.6014846554113,21.2713821911929
0.322, 7.22,-7.22,,,0.2080832,1.789713,1.169479,,,0.1949854,1.756059,1.170236,,44.8235181620417,31.7243153589321,21.2849606068851
0.333, 7.46,-7.46,,,0.2126947,1.783576,1.163364,,,0.19916,1.748819,1.164171,,44.8235181620417,31.6832966590131,21.2970193055292
0.344, 7.65,-7.65,,,0.217178,1.777242,1.157104,,,0.2032864,1.741595,1.158082,,44.8235181620417,31.4721584421705,21.3226734953378
0.355, 7.85,-7.85,,,0.2216381,1.770069,1.149544,,,0.2073258,1.733524,1.150706,,44.8235181620417,31.2208655443148,21.4319906699619
0.366, 8.06,-8.06,,,0.2259699,1.762669,1.141592,,,0.2112181,1.72521,1.142841,,44.8235181620417,31.1028193881744,21.545281307025
0.378, 8.12,-8.12,,,0.2311984,1.75363,1.133495,,,0.216284,1.715888,1.134724,,44.8235181620417,31.116087030268,21.6093296966372
0.389, 7.75,-7.75,,,0.2364257,1.741375,1.124765,,,0.2222217,1.705362,1.125776,,44.8235181620417,31.3499629462248,21.5577498170079
0.4, 7.27,-7.27,,,0.2434766,1.726833,1.115612,,,0.2302875,1.692965,1.11631,,44.8235181620417,31.811028023127,21.2926650600544
0.411, 6.66,-6.66,,,0.2501198,1.712907,1.108013,,,0.2381809,1.681825,1.108448,,44.8235181620417,32.2397658155872,21.0169320384813
