経過時間(s),めり込み量(mm),Y軸めり込み量(mm),,デバイス先端,X座標,Y座標,Z座標,,仮想物体との接触位置,X座標,Y座標,Z座標,,接触点の法線と床の法線とのなす角,接触点の法線とデバイスの方向ベクトルのなす角,床の法線とデバイスの方向ベクトルのなす角
0.001, 0.48,-0.48,,,0.4855586,1.574077,1.418151,,,0.4842675,1.572129,1.417708,,46.050527461344,16.4317544592596,35.1016935453576
0.011, 0.15,0.15,,,0.4862255,1.569086,1.419041,,,0.4866184,1.56969,1.419175,,46.050527461344,16.7278209534261,34.5818888432278
0.022, 0.69,0.69,,,0.4848427,1.566776,1.417708,,,0.4866815,1.569624,1.41835,,46.050527461344,16.9496125575301,34.4446293654868
0.033, 1.24,1.24,,,0.4822443,1.565688,1.414123,,,0.4855542,1.570794,1.415307,,46.050527461344,17.0488210524638,34.6327122794276
0.044, 1.61,1.61,,,0.4792737,1.566224,1.409942,,,0.4835922,1.572829,1.411537,,46.050527461344,17.1509579909227,34.9654449355856
0.055, 1.88,1.88,,,0.4760303,1.567709,1.406918,,,0.4811255,1.575388,1.408836,,46.050527461344,17.0849510446205,35.425779182267
0.066, 2.06,2.06,,,0.47459,1.567967,1.406513,,,0.4801915,1.576357,1.408623,,46.050527461344,17.0052256637521,35.594201397229
0.077, 2.33,2.33,,,0.4745073,1.566193,1.406804,,,0.4808308,1.575694,1.409188,,46.050527461344,17.0532231092614,35.5140935257777
0.088, 2.88,2.88,,,0.4745147,1.562455,1.406891,,,0.4822477,1.574224,1.409814,,46.050527461344,17.2505967877621,35.1754186052071
0.101, 3.33,3.33,,,0.475289,1.558575,1.408316,,,0.4841199,1.572282,1.41164,,46.050527461344,17.4965723834969,34.632220505821
0.111, 3.87,3.87,,,0.4751815,1.555016,1.407752,,,0.4853173,1.571039,1.411577,,46.050527461344,17.7819871979491,34.1513888620108
0.122, 4.32,4.32,,,0.4746873,1.552483,1.40753,,,0.4858785,1.570457,1.411767,,46.050527461344,18.0397380394853,33.7437905044436
0.133, 4.68,4.68,,,0.4741029,1.550654,1.406765,,,0.4861405,1.570186,1.411356,,46.050527461344,18.2415393879923,33.4991433804654
0.144, 4.96,4.96,,,0.4724457,1.550485,1.405184,,,0.4851805,1.571182,1.410064,,46.050527461344,18.2993501075186,33.4726798132626
0.155, 5.15,5.15,,,0.4707194,1.550979,1.402766,,,0.4839671,1.57244,1.4079,,46.050527461344,18.3287062597544,33.5963130639886
0.167, 5.43,5.43,,,0.4690471,1.550826,1.401082,,,0.4829903,1.573453,1.406517,,46.050527461344,18.3935367060048,33.5709696477785
0.178, 5.7,5.7,,,0.4683243,1.549748,1.400906,,,0.4828781,1.57357,1.406536,,46.050527461344,18.469741124454,33.3180989762685
0.189, 6.05,6.05,,,0.4677534,1.547954,1.401336,,,0.4830613,1.57338,1.407186,,46.050527461344,18.614570159132,32.892718221692
0.2, 6.5,6.5,,,0.4670689,1.545679,1.400808,,,0.4833386,1.573092,1.407017,,46.050527461344,18.8290039421574,32.5161630730386
0.211, 6.95,6.95,,,0.4660957,1.543689,1.399462,,,0.4833299,1.573101,1.406083,,46.050527461344,19.0707653112916,32.206957002822
0.221, 7.48,7.48,,,0.4651619,1.541064,1.39797,,,0.4835612,1.572861,1.405109,,46.050527461344,19.3282019641347,31.9183951787973
0.233, 7.94,7.94,,,0.463786,1.53947,1.396444,,,0.4831737,1.573263,1.404035,,46.050527461344,19.5177721517258,31.7301278497541
0.244, 8.23,8.23,,,0.4612208,1.540192,1.393864,,,0.4813197,1.575186,1.401808,,46.050527461344,19.556526643998,31.7908106637464
0.255, 8.35,8.35,,,0.4578328,1.542853,1.390559,,,0.478384,1.578232,1.398759,,46.050527461344,19.4379870067038,32.1160779233493
0.267, 8.37,8.37,,,0.4542798,1.546302,1.38659,,,0.4750831,1.581656,1.394968,,46.050527461344,19.3020799063809,32.4837709018012
0.278, 8.4,8.4,,,0.4495853,1.550893,1.382061,,,0.4707105,1.586192,1.390617,,46.050527461344,19.0879107931785,32.9442793183016
0.288, 8.34,8.34,,,0.4454148,1.555614,1.377689,,,0.4665571,1.5905,1.386237,,46.050527461344,18.8925690958993,33.2665925211707
0.3, 8.27,8.27,,,0.4410597,1.560544,1.372531,,,0.462167,1.595054,1.381022,,46.050527461344,18.7247001262447,33.4889868894523
0.311, 8.38,8.38,,,0.4364042,1.564578,1.367009,,,0.4578996,1.599481,1.375667,,46.050527461344,18.6347158015284,33.675696935408
0.322, 8.49,8.49,,,0.4314348,1.568943,1.359984,,,0.453287,1.604266,1.368838,,46.050527461344,18.6140561874113,33.8179697718603
0.333, 8.79,8.79,,,0.4252395,1.573322,1.352236,,,0.4479261,1.609827,1.361494,,46.050527461344,18.6036008756302,33.9659150802604
0.344, 9,9,,,0.4176783,1.579702,1.342628,,,0.4410554,1.616954,1.352257,,46.050527461344,18.542528740866,34.2600400932093
0.355, 9.12,9.12,,,0.4085857,1.588291,1.330378,,,0.4325126,1.625816,1.340352,,46.050527461344,18.4276859433572,34.7337717555749
0.366, 9.23,9.23,,,0.3994309,1.596982,1.318645,,,0.4239053,1.634745,1.328899,,46.050527461344,18.2632491436651,35.1928868135233
0.378, 9.25,9.25,,,0.3905195,1.606046,1.307047,,,0.4152803,1.643692,1.317402,,46.050527461344,18.067782795437,35.5831808873099
0.389, 9.45,9.45,,,0.3816366,1.61383,1.296614,,,0.4071111,1.652166,1.307227,,46.050527461344,17.91086091117,35.8458562951006
0.4, 9.74,9.74,,,0.3725995,1.621153,1.284216,,,0.3989919,1.660588,1.295217,,46.050527461344,17.8318936812783,36.0413977754074
0.411, 10.12,10.12,,,0.3630195,1.628488,1.270663,,,0.3905441,1.669352,1.282282,,46.050527461344,17.8757486171713,36.2690274835421
0.422, 10.32,10.32,,,0.354156,1.636358,1.256855,,,0.3822904,1.677913,1.268906,,46.050527461344,17.9580848377773,36.4718465302071
0.434, 10.8,10.8,,,0.3445795,1.643047,1.242354,,,0.374021,1.686492,1.255102,,46.050527461344,18.0531439929057,36.5451549485288
0.444, 11.1,11.1,,,0.3361092,1.649796,1.230004,,,0.366388,1.69441,1.243114,,46.050527461344,18.0366166431215,36.5857023654083
0.455, 11.4,11.4,,,0.3268853,1.657258,1.218367,,,0.3580484,1.703061,1.231746,,46.050527461344,17.9279995628679,36.6168377818734
0.466, 11.69,11.69,,,0.3180597,1.664366,1.206514,,,0.3501281,1.711277,1.220195,,46.050527461344,17.8167989636327,36.7195911448877
0.479, 11.89,11.89,,,0.3100255,1.671304,1.194366,,,0.3427182,1.718963,1.208283,,46.050527461344,17.758971168634,36.8046474882549
0.489, 12.1,12.1,,,0.3025299,1.677626,1.182444,,,0.3357949,1.726145,1.196585,,46.050527461344,17.7507834795942,36.7842047326379
0.501, 12.4,12.4,,,0.2950482,1.683318,1.170584,,,0.3291328,1.733056,1.185049,,46.050527461344,17.7393890168284,36.7641308072259
0.511, 12.6,12.6,,,0.2871442,1.690127,1.158955,,,0.3218456,1.740615,1.173686,,46.050527461344,17.7106270910339,36.846335546694
0.522, 12.6,12.6,,,0.2791573,1.698374,1.146282,,,0.3140385,1.748714,1.161094,,46.050527461344,17.6308607290316,37.0709394811105
経過時間(s),めり込み量(mm),Y軸めり込み量(mm),,デバイス先端,X座標,Y座標,Z座標,,仮想物体との接触位置,X座標,Y座標,Z座標,,接触点の法線と床の法線とのなす角,接触点の法線とデバイスの方向ベクトルのなす角,床の法線とデバイスの方向ベクトルのなす角
0.001, 0.71,-0.71,,,0.4782999,1.583383,1.387483,,,0.4759937,1.580711,1.386943,,46.050527461344,10.1580132915478,41.61769724732
0.01, 0.52,-0.52,,,0.4773261,1.582986,1.387877,,,0.4756675,1.58105,1.387491,,46.050527461344,10.2026861425711,41.3936397280219
0.021, 0.24,-0.24,,,0.4763194,1.582066,1.38796,,,0.4755547,1.581167,1.387784,,46.050527461344,10.211049708977,41.1740286617497
0.033, 0.14,-0.14,,,0.4751259,1.582603,1.388049,,,0.4746794,1.582075,1.387947,,46.050527461344,10.1996390245124,40.9821925589644
0.044, 0.24,0.24,,,0.4737657,1.581305,1.386933,,,0.4745353,1.582224,1.387108,,46.050527461344,10.3207562043729,40.7073901506398
0.055, 0.73,0.73,,,0.4719805,1.579718,1.38586,,,0.474277,1.582492,1.38639,,46.050527461344,10.5383284592346,40.3977537785175
0.066, 1.22,1.22,,,0.4711919,1.577061,1.384038,,,0.4750064,1.581735,1.384931,,46.050527461344,10.8277833304684,40.0239170450781
0.076, 1.89,1.89,,,0.4706728,1.572856,1.383277,,,0.4765199,1.580166,1.384663,,46.050527461344,11.1914960162923,39.4811048513694
0.087, 2.46,2.46,,,0.4697907,1.569775,1.382251,,,0.4773135,1.579342,1.384043,,46.050527461344,11.477339425103,39.0076703022245
0.098, 3.03,3.03,,,0.468621,1.567011,1.381481,,,0.4777869,1.578851,1.383684,,46.050527461344,11.770715678585,38.5853802081614
0.11, 3.6,3.6,,,0.4664919,1.565236,1.379794,,,0.4772879,1.579369,1.38242,,46.050527461344,12.0516404975565,38.2339704002377
0.121, 3.96,3.96,,,0.4645912,1.564627,1.378498,,,0.4764501,1.580238,1.381384,,46.050527461344,12.1464836479584,38.0788055820858
0.134, 4.23,4.23,,,0.4615226,1.565931,1.377249,,,0.4742064,1.582565,1.380323,,46.050527461344,12.0601756724606,38.1758591523963
0.144, 4.31,4.31,,,0.4562679,1.570779,1.374846,,,0.4693506,1.587602,1.378032,,46.050527461344,11.7775270845452,38.7327551957817
0.155, 4.57,4.57,,,0.4512516,1.574143,1.37136,,,0.4652621,1.591844,1.374818,,46.050527461344,11.5971896049077,39.2507738034932
0.166, 4.74,4.74,,,0.4464456,1.577911,1.368288,,,0.4611171,1.596143,1.371974,,46.050527461344,11.4856953075463,39.7434899761285
0.176, 5.1,5.1,,,0.4417944,1.580203,1.363897,,,0.4576705,1.599719,1.367976,,46.050527461344,11.5029526337778,40.090367953664
0.187, 5.75,5.75,,,0.4370315,1.580586,1.359468,,,0.4549438,1.602547,1.364199,,46.050527461344,11.6745192969914,40.2152135629339
0.199, 6.41,6.41,,,0.4328824,1.580263,1.35516,,,0.4528124,1.604758,1.360568,,46.050527461344,11.9086846422062,40.1987186565474
0.21, 7.17,7.17,,,0.4285254,1.579488,1.349782,,,0.4507183,1.60693,1.355955,,46.050527461344,12.1723435972101,40.0785073305003
0.221, 7.73,7.73,,,0.4243424,1.579893,1.344284,,,0.4482356,1.609506,1.351036,,46.050527461344,12.3241616227618,40.046268838515
0.232, 8.1,8.1,,,0.4188097,1.583027,1.338386,,,0.4438913,1.614012,1.345538,,46.050527461344,12.3601422045346,40.1576111641716
0.244, 8.26,8.26,,,0.4125922,1.588336,1.331262,,,0.4383513,1.619759,1.33862,,46.050527461344,12.2418749210259,40.51829636873
0.255, 8.31,8.31,,,0.4059279,1.594851,1.324883,,,0.4320974,1.626247,1.332348,,46.050527461344,12.0671527105036,40.9876020686366
0.266, 7.97,7.97,,,0.3990145,1.604337,1.317319,,,0.4244717,1.634157,1.324542,,46.050527461344,11.8141129918163,41.6547373621583
0.277, 7.62,7.62,,,0.3915563,1.614509,1.310541,,,0.4162233,1.642714,1.317434,,46.050527461344,11.497420180704,42.3094587872089
0.288, 7.29,7.29,,,0.384921,1.623708,1.303922,,,0.4087475,1.650469,1.310489,,46.050527461344,11.2584250381068,42.7908573367044
0.299, 7.16,7.16,,,0.3779215,1.631804,1.296483,,,0.4014937,1.657993,1.302932,,46.050527461344,11.1294958296004,43.085412651559
0.31, 6.98,6.98,,,0.3715707,1.639659,1.289032,,,0.3946132,1.665131,1.295301,,46.050527461344,11.0515744723964,43.2189086951721
0.321, 7.01,7.01,,,0.3647754,1.646503,1.280786,,,0.3878908,1.672104,1.287013,,46.050527461344,10.9694286433082,43.1451904655115
0.333, 6.94,6.94,,,0.3578197,1.654184,1.273269,,,0.3807041,1.679559,1.279351,,46.050527461344,10.8492497606588,43.0846135194484
0.344, 6.86,6.86,,,0.3507727,1.662023,1.264969,,,0.3733995,1.687136,1.27085,,46.050527461344,10.6534581246805,43.0143650257897
0.354, 6.86,6.86,,,0.3435555,1.669478,1.256561,,,0.3662121,1.694592,1.262333,,46.050527461344,10.4683190221901,43.0141191389864
0.366, 6.87,6.87,,,0.3363499,1.676863,1.247419,,,0.3590681,1.702003,1.253162,,46.050527461344,10.3905180470668,43.0491784990204
0.377, 7.07,7.07,,,0.3286357,1.683452,1.237038,,,0.3520223,1.709312,1.242963,,46.050527461344,10.405068910915,43.0746482737267
0.388, 7.28,7.28,,,0.3208261,1.690125,1.225979,,,0.3448953,1.716705,1.232148,,46.050527461344,10.4998676650885,43.1329678423319
0.406, 7.47,7.47,,,0.3121352,1.697814,1.214617,,,0.3368688,1.725031,1.22099,,46.050527461344,10.5281839210521,43.2428621679247
0.413, 7.64,7.64,,,0.3025888,1.706486,1.202983,,,0.3279726,1.73426,1.209518,,46.050527461344,10.4932509195142,43.405919269443
0.421, 7.69,7.69,,,0.2930836,1.715955,1.190403,,,0.3187828,1.743793,1.197023,,46.050527461344,10.4530825781231,43.6936204896562
0.433, 7.94,7.94,,,0.2839572,1.723697,1.177887,,,0.3105633,1.752319,1.184747,,46.050527461344,10.4356758415077,43.893120064477
0.443, 8.13,8.13,,,0.2754757,1.731137,1.165288,,,0.3027426,1.760432,1.17235,,46.050527461344,10.4721336827354,43.938571557044
