経過時間(s),めり込み量(mm),Y軸めり込み量(mm),,デバイス先端,X座標,Y座標,Z座標,,仮想物体との接触位置,X座標,Y座標,Z座標,,接触点の法線と床の法線とのなす角,接触点の法線とデバイスの方向ベクトルのなす角,床の法線とデバイスの方向ベクトルのなす角
0, 0.69,-0.69,,,0.2821311,1.814033,1.512494,,,0.2804297,1.811498,1.510864,,32.1011573755227,11.3519234950532,43.0781385002954
0.01, 0.49,-0.49,,,0.2795725,1.8151,1.509924,,,0.2783735,1.813303,1.508776,,31.6087827123363,11.66207469267,42.9030602661725
0.023, 0.62,-0.62,,,0.2761336,1.818789,1.506412,,,0.2746124,1.816516,1.504956,,30.7147485409009,12.6187929234689,42.9888850058
0.034, 1,-1,,,0.2733294,1.824138,1.501437,,,0.2708633,1.820487,1.499074,,29.574950509589,13.9524462321832,43.2639879424397
0.044, 1.38,-1.38,,,0.2699367,1.829502,1.49642,,,0.2665288,1.824501,1.49315,,28.3803555796383,15.3649011387063,43.5365124827395
0.054, 1.72,-1.72,,,0.2669855,1.834193,1.491807,,,0.2627175,1.827958,1.487707,,27.3131180609549,16.5323119165169,43.6802674702005
0.065, 2.02,-2.02,,,0.2638547,1.838193,1.488241,,,0.2588375,1.830863,1.483414,,26.3856227937067,17.4661268161188,43.7022231126765
0.076, 2.2,-2.2,,,0.2612326,1.841169,1.484994,,,0.2557852,1.833166,1.479757,,25.6280831188464,18.040774520663,43.530563388138
0.088, 2.41,-2.41,,,0.2595663,1.843676,1.482536,,,0.253625,1.834868,1.476824,,25.0543728577397,18.3444242321445,43.2740727164686
0.099, 2.45,-2.45,,,0.2571678,1.845673,1.479413,,,0.2511883,1.83669,1.473647,,24.4259152168642,18.6142815836476,42.9321944372664
0.11, 2.64,-2.64,,,0.2557758,1.847951,1.476843,,,0.2493695,1.838218,1.470653,,23.8866871648227,18.8424491691644,42.6409039527442
0.121, 2.86,-2.86,,,0.2534474,1.850621,1.474219,,,0.2465388,1.840036,1.46754,,23.2301506170507,19.260929725324,42.4081516028746
0.132, 3.26,-3.26,,,0.2508574,1.854211,1.471555,,,0.2430178,1.842125,1.46398,,22.453677658338,19.8503357607066,42.2218035569347
0.143, 3.46,-3.46,,,0.2488839,1.856663,1.468702,,,0.24057,1.843776,1.460664,,21.8204542531018,20.3272605364203,42.0775397203948
0.154, 3.71,-3.71,,,0.2469994,1.859073,1.466347,,,0.238135,1.845256,1.457758,,21.2380047651952,20.7716326314555,41.9476431863742
0.165, 3.97,-3.97,,,0.245018,1.861513,1.46416,,,0.2355562,1.846691,1.454986,,20.6580243906048,21.2157349340261,41.8150077465727
0.177, 4.16,-4.16,,,0.2424672,1.863797,1.461616,,,0.2325842,1.848226,1.452039,,20.0200898625197,21.6842073508771,41.6451580221139
0.188, 4.37,-4.37,,,0.2406636,1.865996,1.458947,,,0.2303205,1.849585,1.448916,,19.4377411199006,22.0681151979673,41.4563272024798
0.199, 4.4,-4.4,,,0.2384487,1.86738,1.456274,,,0.2280871,1.850791,1.446209,,18.9068458984146,22.3593544560722,41.2226425318145
0.21, 4.5,-4.5,,,0.236616,1.868956,1.453656,,,0.2261087,1.851923,1.443415,,18.3942299701862,22.555606276033,40.9159055749141
0.221, 4.44,-4.44,,,0.2348696,1.86987,1.450371,,,0.2245913,1.852991,1.44031,,17.8966643633752,22.7326738026963,40.6094896368958
0.232, 4.36,-4.36,,,0.2327569,1.870674,1.447411,,,0.2227587,1.854017,1.437551,,17.4065095116073,22.9114010652818,40.3066117367691
0.243, 4.19,-4.19,,,0.2311148,1.871012,1.443876,,,0.2215989,1.854946,1.434431,,16.9493069065733,23.0760581385686,40.0228242148413
0.255, 4.15,-4.15,,,0.2294013,1.871896,1.440693,,,0.2200566,1.85591,1.431378,,16.4623793190985,23.2502808915218,39.7126004464667
0.265, 4.25,-4.25,,,0.2276652,1.873431,1.437505,,,0.21817,1.856975,1.428,,15.9076228324111,23.4993129968251,39.4059283763616
0.276, 4.32,-4.32,,,0.2261466,1.874719,1.434408,,,0.2165451,1.857916,1.424783,,15.4005239893312,23.7561656685104,39.1517019123391
0.287, 4.59,-4.59,,,0.2237712,1.876938,1.431756,,,0.2136341,1.859064,1.421586,,14.760909234757,24.1998837729509,38.9546133942283
0.3, 4.76,-4.76,,,0.2219107,1.878701,1.428355,,,0.2114405,1.860122,1.417838,,14.1440244953344,24.6617309064913,38.792071971978
0.31, 4.86,-4.86,,,0.2197395,1.880185,1.424933,,,0.2091001,1.861136,1.414215,,13.5275504210242,25.0807459249385,38.5849806421061
0.321, 4.87,-4.87,,,0.2179543,1.881146,1.421283,,,0.2073888,1.861989,1.410604,,12.9845060008902,25.3376054268128,38.280364458884
0.332, 4.81,-4.81,,,0.2165691,1.881546,1.418724,,,0.2062528,1.862524,1.408267,,12.6326351552104,25.2766254995999,37.8520637985185
0.345, 4.61,-4.61,,,0.2152392,1.88131,1.416174,,,0.2054517,1.862944,1.406223,,12.3480903360795,25.1405715502138,37.4126367603048
0.356, 4.35,-4.35,,,0.213578,1.880747,1.413874,,,0.2044778,1.863326,1.40459,,12.0848155792057,24.915400710112,36.9107647193418
0.366, 4.02,-4.02,,,0.2121769,1.879919,1.411144,,,0.2038828,1.863676,1.40265,,11.8368438607416,24.6234408670697,36.3442825057231
0.376, 3.7,-3.7,,,0.2108744,1.878959,1.409274,,,0.2033658,1.863898,1.40156,,11.6778438914774,24.1865683195345,35.7335953090262
0.388, 3.17,-3.17,,,0.2099545,1.876981,1.407151,,,0.2036431,1.863967,1.400644,,11.6262033939209,23.5716498207645,35.0383401274741
0.399, 2.64,-2.64,,,0.20924,1.874822,1.405865,,,0.2040992,1.863905,1.400545,,11.6697757307448,22.8119483910921,34.3040606611851
0.41, 2.05,-2.05,,,0.2074086,1.872694,1.403567,,,0.203476,1.864134,1.399485,,11.5029014073604,22.3857599666687,33.6950058796543
0.421, 1.72,-1.72,,,0.2050908,1.871861,1.400578,,,0.2018478,1.86466,1.397198,,11.1115059656009,22.3310040491637,33.2251605948184
0.433, 1.51,-1.51,,,0.2021834,1.871716,1.397049,,,0.1993697,1.865379,1.394106,,10.5527708938327,22.5929264286194,32.9043158825799
0.443, 1.41,-1.41,,,0.1993576,1.872043,1.393783,,,0.1967474,1.866076,1.391047,,9.98272502911368,22.8226837406213,32.5438526591633
0.455, 1.07,-1.07,,,0.1970917,1.871061,1.390758,,,0.1951485,1.866522,1.38872,,9.59837151219246,22.6813790834569,31.9912528046464
0.466, 0.52,-0.52,,,0.1951884,1.868945,1.389089,,,0.1942575,1.8667,1.388114,,9.44196189209895,21.99380615696,31.1528436922636
0.477, 0.31,0.31,,,0.194331,1.865058,1.389646,,,0.1948723,1.86642,1.39021,,9.69042879926416,20.5716873868038,30.0241583784221
0.488, 1.25,1.25,,,0.193625,1.860712,1.389285,,,0.1957056,1.866184,1.391449,,9.89429627993757,19.2673569331541,28.9327112548992
0.499, 2.01,2.01,,,0.1923435,1.857325,1.388115,,,0.195571,1.866199,1.391486,,9.88164762372034,18.2723896440675,27.9192375687715
0.51, 2.57,2.57,,,0.1908271,1.85505,1.385333,,,0.1948396,1.866486,1.389564,,9.63198457971001,17.8547082200186,27.1992263672615
0.522, 3.04,3.04,,,0.188834,1.853282,1.38208,,,0.193465,1.866905,1.38701,,9.2565248226143,17.6759177781851,26.5869289535126
0.532, 3.02,3.02,,,0.1844659,1.854168,1.378826,,,0.1889887,1.867762,1.383635,,8.44515301330862,17.9565890263907,26.0856391861602
0.544, 3.02,3.02,,,0.1805839,1.854874,1.37534,,,0.1850519,1.868492,1.380042,,7.6834196024147,18.2677707287698,25.6492191386449
0.555, 2.89,2.89,,,0.1761313,1.856187,1.371496,,,0.1803884,1.869254,1.375945,,6.79760001388805,18.9062226436702,25.414185505656
0.566, 2.74,2.74,,,0.1719421,1.857515,1.367418,,,0.1759451,1.869909,1.371612,,5.92645337883757,19.6353606852046,25.2528513193079
0.577, 2.61,2.61,,,0.1680694,1.858639,1.36299,,,0.1718653,1.870447,1.367002,,5.09262220061859,20.5246529979407,25.2492091210344
0.589, 2.38,2.38,,,0.1638841,1.860142,1.358119,,,0.1673266,1.870936,1.361793,,4.18675515366218,21.4638210581556,25.1871295333956
0.599, 2.14,2.14,,,0.1602766,1.861529,1.354488,,,0.163354,1.871258,1.357786,,3.45632385853313,22.140168569064,25.0544770181216
0.611, 1.86,1.86,,,0.1570636,1.863046,1.351878,,,0.159697,1.871482,1.354697,,2.8386942016249,22.5167578686623,24.757788976758
0.621, 1.87,1.87,,,0.1541555,1.863076,1.350052,,,0.1567603,1.871619,1.352829,,2.37981478519625,22.4319320441731,24.202059188141
0.633, 1.96,1.96,,,0.1523323,1.862706,1.349518,,,0.1549925,1.871689,1.352338,,2.11997198484153,21.9723303352598,23.5298541868489
0.644, 2.11,2.11,,,0.1503775,1.862016,1.349422,,,0.1531621,1.871752,1.352361,,1.85972684366722,21.3681403558301,22.7618557851131
0.655, 2.36,2.36,,,0.1483875,1.860867,1.348428,,,0.1514075,1.871804,1.351605,,1.59875386047973,20.8726255132602,22.0219397053684
0.689, 2.35,2.35,,,0.1457219,1.860927,1.346673,,,0.1486579,1.871862,1.349751,,1.20949861574837,20.7439396302363,21.4364866418579
0.701, 1.31,1.31,,,0.1319209,1.865333,1.332794,,,0.1334638,1.871492,1.33443,,2.53829032401278,22.6384496381707,20.2404727401466
0.713, 0.85,0.85,,,0.1279129,1.867074,1.327525,,,0.1289117,1.871081,1.328588,,3.5742361856582,23.6463481825436,20.1854675207439
0.725, 0.48,0.48,,,0.1245088,1.868399,1.323299,,,0.1250614,1.870643,1.323891,,4.43062577053069,24.364745751907,20.0288376270557
0.736, 0.38,0.38,,,0.1218563,1.868489,1.320357,,,0.1222919,1.870296,1.320826,,5.01196108385992,24.6041387530124,19.6729489227084
0.748, 0.19,0.19,,,0.1188692,1.868955,1.317437,,,0.1190851,1.869874,1.317669,,5.64128658562268,24.7870990252182,19.2107483268883
0.76, 0.02,-0.02,,,0.1154975,1.869368,1.313588,,,0.1154784,1.869285,1.313568,,6.42028116472936,25.0919901235467,18.726870418793
0.771, 0.17,-0.17,,,0.1131935,1.869497,1.309579,,,0.1130165,1.868691,1.309387,,7.11943211532091,25.1813836369163,18.1236161752535
0.783, 0.3,-0.3,,,0.1103932,1.869516,1.306239,,,0.1100913,1.868086,1.305913,,7.77172882328366,25.1607889095945,17.4464541643093
0.795, 0.13,-0.13,,,0.1086234,1.868324,1.303863,,,0.1084984,1.867698,1.303728,,8.16272128389339,24.6831828225301,16.5765749562014
0.807, 0.03,0.03,,,0.1064091,1.867083,1.301392,,,0.1064377,1.867236,1.301423,,8.60674333174342,24.1913443291787,15.6368416978484
0.818, 0.02,0.02,,,0.1031238,1.866288,1.297122,,,0.1031369,1.866361,1.297137,,9.3906535124816,24.2132777735405,14.8709555320546
0.829, 0.34,-0.34,,,0.1000293,1.866827,1.291705,,,0.09974828,1.865178,1.291396,,10.3582027154555,24.6976372099589,14.3899975297483
0.841, 1.16,-1.16,,,0.09523541,1.868722,1.283498,,,0.09429777,1.863079,1.282442,,11.8877970705319,26.076263044238,14.2380539994741
0.852, 2.06,-2.06,,,0.09000383,1.870573,1.275294,,,0.08836018,1.860605,1.273409,,13.4761652017809,27.7014911440908,14.2721989679584
0.863, 3.02,-3.02,,,0.08502271,1.87279,1.268379,,,0.08262993,1.858124,1.265615,,14.9056187411279,29.0489235052985,14.1862393320986
0.875, 3.62,-3.62,,,0.08107552,1.873777,1.263401,,,0.07828467,1.856179,1.260155,,15.9406211829204,29.7645258198219,13.8611231904268
0.886, 3.9,-3.9,,,0.07830946,1.87381,1.260006,,,0.07541692,1.85484,1.256631,,16.6169994296792,29.961505054909,13.3778190182059
0.897, 3.97,-3.97,,,0.07523307,1.87281,1.256411,,,0.07244638,1.853427,1.253121,,17.303170459888,30.0097056985405,12.7327469426367
0.908, 3.97,-3.97,,,0.07252565,1.871681,1.253588,,,0.06992342,1.852267,1.250466,,17.8478575404717,29.8468125215578,12.017195000757
0.92, 3.96,-3.96,,,0.06881159,1.87016,1.250303,,,0.06637583,1.850745,1.247359,,18.5399725426403,29.8556439559089,11.3274859326566
0.93, 4.09,-4.09,,,0.06566174,1.86932,1.246995,,,0.06330786,1.84922,1.244127,,19.2090049211512,29.8530997105138,10.652109162357
0.942, 4.1,-4.1,,,0.06298263,1.86798,1.243638,,,0.06077415,1.847759,1.240928,,19.8293756182744,29.8266395584055,10.0032915819059
0.953, 4.03,-4.03,,,0.06002938,1.86652,1.241506,,,0.0580271,1.8466,1.239038,,20.3096949979111,29.567123113018,9.26047267184471
0.964, 3.91,-3.91,,,0.05737711,1.864986,1.239774,,,0.05561105,1.845617,1.237583,,20.709045902285,29.1715185672996,8.46345706600125
0.975, 3.69,-3.69,,,0.05531913,1.862946,1.237734,,,0.05382141,1.84466,1.235822,,21.0902353341613,28.855154459032,7.76488155883126
0.986, 3.57,-3.57,,,0.05331188,1.860957,1.23444,,,0.05202708,1.84325,1.232711,,21.6394286319245,28.7776215688261,7.13962898413461
0.997, 3.36,-3.36,,,0.05093373,1.858543,1.231609,,,0.04986208,1.841869,1.230085,,22.1649570324195,28.7395842463968,6.58135751144341
1.009, 3.41,-3.41,,,0.04775487,1.857067,1.228653,,,0.04677084,1.840132,1.227204,,22.8109170325561,28.9121318955027,6.11449189654996
1.02, 3.57,-3.57,,,0.0441745,1.855757,1.225119,,,0.04323511,1.838004,1.223709,,23.5790691135439,29.2222190600977,5.66115859357302
1.031, 3.64,-3.64,,,0.04073149,1.854419,1.222794,,,0.03987316,1.836308,1.221494,,24.176005432277,29.278475911631,5.12506730582057
1.042, 3.16,-3.16,,,0.03962147,1.851935,1.222684,,,0.03902804,1.836167,1.221753,,24.2256813967281,28.4124335621826,4.21686518800664
1.053, 2.13,-2.13,,,0.03949263,1.847859,1.224946,,,0.03923791,1.8372,1.2245,,23.8668591262139,26.7958029627083,2.98071496141512
1.064, 0.87,-0.87,,,0.04024919,1.842997,1.228014,,,0.0402211,1.838653,1.227928,,23.3524229526224,24.6629500952242,1.42834384708118
1.076, 0.35,0.35,,,0.04042955,1.83794,1.230861,,,0.04041297,1.839689,1.23086,,22.9800956909476,22.8104781929141,0.586508060903657
1.086, 1.37,1.37,,,0.03998221,1.833206,1.232545,,,0.03981913,1.84004,1.232422,,22.8532249306451,21.3845737905158,1.57122040820624
1.098, 1.94,1.94,,,0.03867783,1.829397,1.231022,,,0.03834228,1.83908,1.230739,,23.2021844082723,20.8392907759436,2.44328410284899
1.109, 1.97,1.97,,,0.03481226,1.826517,1.226342,,,0.03441272,1.836356,1.226002,,24.166212648827,21.3580163082146,2.89374104249174
1.12, 1.61,1.61,,,0.03052637,1.825164,1.22104,,,0.03018399,1.833225,1.220744,,25.2314216013833,22.2578271119798,3.05511663686048
1.131, 1.19,1.19,,,0.02594231,1.823951,1.215774,,,0.02568425,1.829873,1.215534,,26.3281450458932,23.1444727264862,3.24014859076126
1.142, 0.64,0.64,,,0.02018192,1.82291,1.210773,,,0.02004434,1.826092,1.21063,,27.5174875605183,24.1494325820505,3.39095937688186
1.153, 0.18,0.18,,,0.01580242,1.821762,1.205944,,,0.01576182,1.822667,1.205897,,28.5547781156192,24.8416261313923,3.71899606467278
1.165, 0.05,-0.05,,,0.01169471,1.819924,1.202265,,,0.01170749,1.819661,1.202281,,29.4384013715019,25.1843769672367,4.25399622973568
1.175, 0.12,0.12,,,0.009343885,1.8174,1.200601,,,0.009310011,1.818013,1.200557,,29.9130892603247,24.8790999632308,5.03847288927239
1.187, 0.45,0.45,,,0.006892011,1.814448,1.20002,,,0.00674947,1.816707,1.199818,,30.285245767275,24.2710662949526,6.04078775415418
1.198, 0.67,0.67,,,0.004287353,1.811458,1.198229,,,0.004052557,1.814786,1.197887,,30.8241784136431,23.9728858572969,6.8987307801328
1.209, 0.72,0.72,,,0.00130197,1.808353,1.19473,,,0.001025751,1.811934,1.194328,,31.6080450519265,24.1122080521098,7.54953850689792
1.22, 0.56,0.56,,,-0.002237884,1.805829,1.190715,,,-0.00246691,1.808611,1.190384,,32.500197506298,24.5347935518463,8.0200300983661
1.231, 0.22,0.22,,,-0.006695036,1.803547,1.186243,,,-0.006788097,1.80464,1.186106,,33.5392160992108,25.1801712783723,8.43281939955809
1.242, 0.44,-0.44,,,-0.01252227,1.802161,1.18165,,,-0.01233895,1.799996,1.181937,,34.7201318681819,26.1133134043597,8.73491268172572
1.253, 1.16,-1.16,,,-0.01850585,1.800817,1.177039,,,-0.01802759,1.795105,1.177835,,35.9274087515211,27.0991640987053,9.02769641631368
1.264, 1.48,-1.48,,,-0.02335085,1.798021,1.173049,,,-0.02272467,1.790709,1.174119,,36.9831169112064,27.8210740927517,9.40677702734238
1.276, 1.67,-1.67,,,-0.02641922,1.79504,1.168709,,,-0.02567505,1.786815,1.169972,,37.8963814797149,28.2492279040541,9.89439531767778
1.287, 1.51,-1.51,,,-0.02946688,1.790931,1.165959,,,-0.02874913,1.783525,1.167169,,38.6543992678037,28.3799167399963,10.537805096004
1.298, 1.35,-1.35,,,-0.0320207,1.787576,1.164142,,,-0.03133091,1.780984,1.165298,,39.2315297460422,28.1990840716578,11.3222164418586
1.309, 1.1,-1.1,,,-0.03453679,1.78386,1.162639,,,-0.03394281,1.778508,1.163647,,39.7873671101357,28.0225885733215,12.1110170379064
1.321, 1.05,-1.05,,,-0.0381545,1.780337,1.160668,,,-0.03755883,1.77521,1.161703,,40.5181153687221,28.061916801468,12.8914779732097
1.331, 1.2,-1.2,,,-0.04230309,1.776643,1.157358,,,-0.04160277,1.77081,1.158598,,41.4758786184349,28.4854636503034,13.4985835895603
1.343, 1.63,-1.63,,,-0.04693044,1.77333,1.152839,,,-0.04597356,1.765427,1.154567,,42.6233947632941,29.3731013497592,13.8140170845794
1.354, 2.07,-2.07,,,-0.05153356,1.769368,1.14755,,,-0.05030747,1.759326,1.1498,,43.8942436305642,30.4029435837774,14.0921654317306
1.365, 2.5,-2.5,,,-0.05666427,1.764832,1.142437,,,-0.05517032,1.752718,1.145221,,45.2390736897705,31.4909482920543,14.3967986904251
1.376, 2.94,-2.94,,,-0.06124779,1.760949,1.138027,,,-0.05948196,1.746751,1.141372,,46.427185062832,32.4317692580024,14.6987886659844
1.387, 3.26,-3.26,,,-0.06599377,1.756566,1.134291,,,-0.06400324,1.740838,1.138111,,47.582463717467,33.2572249169847,15.0934421078874
1.398, 3.35,-3.35,,,-0.07025183,1.751813,1.131674,,,-0.06815647,1.73571,1.135751,,48.5677765344304,33.7617504863664,15.6671455388051
経過時間(s),めり込み量(mm),Y軸めり込み量(mm),,デバイス先端,X座標,Y座標,Z座標,,仮想物体との接触位置,X座標,Y座標,Z座標,,接触点の法線と床の法線とのなす角,接触点の法線とデバイスの方向ベクトルのなす角,床の法線とデバイスの方向ベクトルのなす角
0.001, 0.72,-0.72,,,0.2907719,1.780694,1.564207,,,0.2886149,1.778149,1.562868,,40.2552726213013,16.1952694111125,45.0641559650886
0.01, 0.26,-0.26,,,0.2888243,1.779607,1.563005,,,0.2880358,1.778673,1.562513,,40.1387052010751,16.1261410684465,45.0016563208276
0.021, 0.19,0.19,,,0.2868887,1.778481,1.561898,,,0.2874429,1.77914,1.562246,,40.0346336115876,16.0699047074801,44.9313907516964
0.033, 0.74,0.74,,,0.2850569,1.776593,1.560862,,,0.2872584,1.779224,1.562252,,40.015782290003,15.9626400046445,44.8257891998775
0.044, 1.38,1.38,,,0.2833478,1.774587,1.559095,,,0.2874444,1.779513,1.561698,,39.9510252682841,15.7462288819094,44.7113903646524
0.055, 1.72,1.72,,,0.2822789,1.773752,1.557997,,,0.287341,1.779877,1.561234,,39.8692235099658,15.5730852988151,44.5867462459574
0.066, 2.25,2.25,,,0.2805492,1.772386,1.556254,,,0.2871707,1.780444,1.560516,,39.7417277873717,15.4008979421779,44.4782589392944
0.077, 2.65,2.65,,,0.2793418,1.771815,1.554275,,,0.287093,1.781296,1.559301,,39.5490652317199,15.1860970364948,44.3920038977612
0.088, 3.25,3.25,,,0.2774275,1.77083,1.551447,,,0.2869115,1.782481,1.557648,,39.2802665595086,14.9647186588241,44.3410984992936
0.101, 3.71,3.71,,,0.2756747,1.770284,1.549142,,,0.2864597,1.783603,1.556263,,39.0241720388,14.7679306690284,44.274210458613
0.11, 4.14,4.14,,,0.2741139,1.770301,1.54612,,,0.28612,1.785156,1.554114,,38.6674312683775,14.5926919254644,44.2950493651909
0.121, 4.46,4.46,,,0.2725567,1.770897,1.543202,,,0.285464,1.786896,1.551864,,38.2644432883717,14.4798691563464,44.3122921772707
0.132, 4.59,4.59,,,0.2704515,1.772681,1.540651,,,0.2837364,1.78911,1.549592,,37.7471862467315,14.6560350980644,44.4057462379888
0.143, 4.62,4.62,,,0.2681135,1.775278,1.537796,,,0.2815257,1.791802,1.546819,,37.109939860186,14.9674814702665,44.510415469012
0.155, 4.32,4.32,,,0.2660616,1.779257,1.535753,,,0.2786357,1.79466,1.544153,,36.4230892261737,15.5014588145296,44.6109216998519
0.167, 3.99,3.99,,,0.2640184,1.783167,1.53392,,,0.2756827,1.79738,1.541647,,35.759041178071,16.0692507168853,44.6874437220887
0.176, 3.76,3.76,,,0.2611133,1.787396,1.53095,,,0.2721355,1.800789,1.538227,,34.9112439709353,16.6455769403713,44.7395853847616
0.188, 3.76,3.76,,,0.2586146,1.790621,1.526967,,,0.2696218,1.803998,1.534241,,34.0952788595406,16.9958102482432,44.7424130829993
0.199, 3.67,3.67,,,0.2563447,1.794232,1.522763,,,0.2670869,1.807314,1.529887,,33.2335378216023,17.3253514986004,44.7130364401966
0.21, 3.57,3.57,,,0.2534738,1.798565,1.517562,,,0.2638924,1.811285,1.524507,,32.1745648315846,17.7797964148338,44.6891580995227
0.221, 3.31,3.31,,,0.251029,1.803042,1.513271,,,0.2606652,1.814825,1.519709,,31.2035510152507,18.3029615699417,44.6643269474861
0.232, 3.08,3.08,,,0.2476907,1.807573,1.508801,,,0.2566344,1.818563,1.514781,,30.1479111574552,18.8996246811156,44.5295331679669
0.243, 2.93,2.93,,,0.2452371,1.810969,1.504886,,,0.2537207,1.821471,1.510552,,29.3025796485412,19.2712791691758,44.3090819884502
0.254, 2.69,2.69,,,0.242331,1.814451,1.502029,,,0.250081,1.824137,1.507169,,28.5082542833823,19.6889605932247,43.9717799358645
0.266, 2.5,2.5,,,0.2390135,1.817767,1.498956,,,0.2461855,1.82683,1.503689,,27.6844276244717,20.1049395926703,43.6126690898659
0.277, 2.48,2.48,,,0.2360666,1.820146,1.495503,,,0.2431348,1.829205,1.500162,,26.9384156010623,20.313729932051,43.200368147186
0.288, 2.42,2.42,,,0.23331,1.823094,1.490865,,,0.240144,1.831984,1.495386,,26.0390948633564,20.5298251585458,42.8058017901925
0.299, 2.43,2.43,,,0.230401,1.825753,1.485838,,,0.2372115,1.834731,1.490368,,25.1204344455537,20.7963664532992,42.4725295491051
