経過時間(s),めり込み量(mm),Y軸めり込み量(mm),,デバイス先端,X座標,Y座標,Z座標,,仮想物体との接触位置,X座標,Y座標,Z座標,,接触点の法線と床の法線とのなす角,接触点の法線とデバイスの方向ベクトルのなす角,床の法線とデバイスの方向ベクトルのなす角
0.001, 0.48,-0.48,,,0.3982377,1.630655,1.281613,,,0.3971991,1.628654,1.280722,,45.0005395849294,27.5459404202615,34.5348698222899
0.011, 1.7,1.7,,,0.4002288,1.615062,1.280213,,,0.4036805,1.622173,1.283282,,45.0005395849294,28.2551445552579,33.1698360640808
0.022, 1.99,1.99,,,0.3959045,1.617561,1.272018,,,0.3999545,1.625899,1.27567,,45.0005395849294,28.4486147807566,33.3504399210886
0.033, 2.71,2.71,,,0.3954968,1.613614,1.266977,,,0.4008779,1.624975,1.272053,,45.0005395849294,29.1663276236748,33.2431513125916
0.044, 4.8,4.8,,,0.3925683,1.603542,1.277317,,,0.4019045,1.623949,1.285819,,45.0005395849294,28.7900627580531,31.9182585750177
0.055, 7,7,,,0.3906339,1.591922,1.283048,,,0.4037375,1.622116,1.294927,,45.0005395849294,28.9635222373878,30.5282365704255
0.066, 8.97,8.97,,,0.3899102,1.580717,1.282517,,,0.4059428,1.619911,1.297325,,45.0005395849294,29.4829581093126,29.2807776853173
0.078, 10.8,10.8,,,0.3878235,1.571796,1.283375,,,0.4064316,1.619422,1.300715,,45.0005395849294,29.8386470306323,28.275740990127
0.091, 12.25,12.25,,,0.3870307,1.564121,1.283585,,,0.4073451,1.618508,1.30303,,45.0005395849294,30.3759062807003,27.514376409438
0.101, 13.11,13.11,,,0.3855208,1.560601,1.284469,,,0.4068887,1.618965,1.305275,,45.0005395849294,30.6622209725506,27.2422155767013
0.111, 13.14,13.14,,,0.3781795,1.567497,1.27845,,,0.4003477,1.625506,1.299925,,45.0005395849294,30.3672524312627,28.1907000146849
0.123, 12.75,12.75,,,0.373193,1.575123,1.26874,,,0.394992,1.630861,1.290691,,45.0005395849294,30.6767897656448,29.2093304934925
0.134, 11.87,11.87,,,0.3662482,1.586979,1.266141,,,0.3873852,1.638468,1.286792,,45.0005395849294,30.1127595898699,30.0276998314082
0.145, 10.71,10.71,,,0.3622243,1.598007,1.262587,,,0.3816813,1.644172,1.281439,,45.0005395849294,29.9023146372088,30.5813481199336
0.156, 9.78,9.78,,,0.3588328,1.606871,1.262145,,,0.376895,1.648958,1.279235,,45.0005395849294,29.5343143002528,30.7473865989415
0.167, 8.38,8.38,,,0.3557296,1.61839,1.262825,,,0.3714411,1.654412,1.277373,,45.0005395849294,29.1977055118487,30.8985113603118
0.178, 7.43,7.43,,,0.3537923,1.626128,1.264863,,,0.3677316,1.658122,1.277533,,45.0005395849294,28.9762571247409,30.6566065572091
0.189, 6.3,6.3,,,0.3533393,1.633404,1.269667,,,0.3650676,1.660786,1.279985,,45.0005395849294,28.6854447534473,29.8694853338767
0.2, 5.21,5.21,,,0.3535358,1.639958,1.27393,,,0.3630498,1.662803,1.282113,,45.0005395849294,28.614349316355,28.9437351799129
0.211, 4.33,4.33,,,0.3515241,1.647365,1.279646,,,0.3593358,1.666518,1.286014,,45.0005395849294,28.2385557337729,27.9128410967917
0.222, 3.46,3.46,,,0.3499265,1.654333,1.284328,,,0.3560776,1.669776,1.289112,,45.0005395849294,28.0249654790865,26.9293980440616
0.233, 2.64,2.64,,,0.3463582,1.663002,1.283611,,,0.3510056,1.674848,1.287149,,45.0005395849294,27.9928294399359,26.3996502943242
0.244, 2.59,2.59,,,0.3479612,1.661817,1.287993,,,0.3522492,1.673604,1.291244,,45.0005395849294,28.6868722629441,24.6898866530139
0.255, 2.95,2.95,,,0.3484361,1.659192,1.29667,,,0.3530239,1.67283,1.300019,,45.0005395849294,29.2679574206019,22.760955907715
0.266, 3.11,3.11,,,0.3487077,1.658144,1.297886,,,0.3532144,1.672639,1.301211,,45.0005395849294,30.1565684219873,21.275710823459
0.278, 3,3,,,0.3472217,1.66043,1.296462,,,0.3513532,1.6745,1.299543,,45.0005395849294,30.8032370542306,20.2678771658814
0.289, 3.13,3.13,,,0.3453986,1.661521,1.297011,,,0.3495329,1.67632,1.300061,,45.0005395849294,31.2833583583868,19.293535339967
0.299, 3.27,3.27,,,0.3395662,1.666592,1.295429,,,0.3438069,1.682046,1.298557,,45.0005395849294,31.470112800571,18.9780369581526
0.311, 3.54,3.54,,,0.3322746,1.672172,1.293914,,,0.3369305,1.688923,1.297291,,45.0005395849294,31.2764154712887,19.0967422275295
0.322, 3.61,3.61,,,0.3256949,1.67837,1.288271,,,0.3304543,1.695399,1.29184,,45.0005395849294,31.337975964565,19.4083695997395
0.333, 3.14,3.14,,,0.3160943,1.690681,1.281568,,,0.3204328,1.70542,1.284873,,45.0005395849294,30.8665290004132,20.4584923723865
0.344, 2.96,2.96,,,0.3084428,1.699408,1.275755,,,0.3126348,1.713219,1.279049,,45.0005395849294,30.6961089551746,21.2633977002754
0.355, 1.89,1.89,,,0.2989867,1.715338,1.258434,,,0.3017873,1.724066,1.260829,,45.0005395849294,30.6312733862825,23.053708052679
0.366, 2.05,2.05,,,0.2937545,1.719592,1.268103,,,0.2967857,1.729068,1.27052,,45.0005395849294,30.2530755771794,22.4079512506645
0.378, 1.63,1.63,,,0.2866246,1.729236,1.268647,,,0.289064,1.736789,1.270549,,45.0005395849294,30.0363434355623,22.4240363457123
0.389, 1.4,1.4,,,0.2825421,1.734739,1.270042,,,0.2846099,1.741243,1.271645,,45.0005395849294,30.1655945167243,22.0657707356
0.399, 1.61,1.61,,,0.2762456,1.739779,1.27587,,,0.2785951,1.747258,1.2776,,45.0005395849294,30.0365824921766,21.4592567843698
0.41, 1.84,1.84,,,0.2729806,1.74165,1.276103,,,0.2755737,1.75028,1.278027,,45.0005395849294,30.5406948351249,20.6654078248922
0.422, 2.42,2.42,,,0.2722677,1.739014,1.28033,,,0.2754136,1.75044,1.282697,,45.0005395849294,31.5050662926759,19.1647060229745
0.433, 3.17,3.17,,,0.2698745,1.737012,1.285232,,,0.2737423,1.752111,1.288119,,45.0005395849294,32.2133295691403,17.8765614096599
0.444, 3.64,3.64,,,0.2663351,1.737885,1.285796,,,0.2705603,1.755293,1.289015,,45.0005395849294,32.8096836142628,17.1219587160611
0.455, 4.24,4.24,,,0.261144,1.739669,1.284186,,,0.2658683,1.759985,1.287929,,45.0005395849294,33.327811504998,16.6813773759097
0.466, 4.8,4.8,,,0.2544744,1.743072,1.285581,,,0.2597417,1.766112,1.289725,,45.0005395849294,33.4683528885438,16.3754480888562
0.478, 5.59,5.59,,,0.2487556,1.744253,1.28843,,,0.2546845,1.771169,1.293062,,45.0005395849294,33.7971547709439,15.7717311000133
0.488, 5.74,5.74,,,0.2392309,1.752752,1.28508,,,0.2455205,1.780333,1.289934,,45.0005395849294,33.4436617553813,16.2232236670602
0.5, 5.69,5.69,,,0.229162,1.763043,1.275793,,,0.2355787,1.790275,1.280989,,45.0005395849294,33.2654348041386,17.0257298910699
0.511, 5.2,5.2,,,0.2193922,1.775563,1.269362,,,0.2255415,1.800312,1.274487,,45.0005395849294,32.8639494657085,18.0839293621856
0.522, 5.01,5.01,,,0.2101178,1.785769,1.271575,,,0.2162621,1.809591,1.276425,,45.0005395849294,32.3239649702375,18.3463008265667
0.532, 4.79,4.79,,,0.2018641,1.795276,1.269732,,,0.2078648,1.817989,1.274436,,45.0005395849294,32.0647353927871,18.7119413332301
0.557, 4.75,4.75,,,0.1963709,1.801063,1.270993,,,0.2022413,1.823612,1.275578,,45.0005395849294,32.1970156627617,18.4350949908532
0.567, 4.96,4.96,,,0.1862619,1.810134,1.275365,,,0.1920471,1.833806,1.279834,,45.0005395849294,32.7818096130356,17.314935460406
0.579, 4.96,4.96,,,0.1738983,1.822521,1.276136,,,0.1795371,1.846316,1.280406,,45.0005395849294,33.0270612087385,16.7070435185491
0.589, 5.07,5.07,,,0.1667854,1.829004,1.278707,,,0.1724913,1.853362,1.28286,,45.0005395849294,33.042056888644,16.3070881424504
0.6, 5,5,,,0.1593179,1.83688,1.279382,,,0.164949,1.860904,1.283375,,45.0005395849294,32.9756264706251,16.1775792216544
0.611, 5.25,5.25,,,0.1518125,1.842947,1.278661,,,0.157653,1.8682,1.282818,,45.0005395849294,33.1173221561085,15.9932597418416
0.622, 3.51,3.51,,,0.1441278,1.85019,1.276872,,,0.1480221,1.867092,1.279664,,45.0005259245515,58.4286877044076,15.9748062787651
0.633, 0.08,-0.08,,,0.1367544,1.856134,1.272982,,,0.1366628,1.855733,1.272915,,45.0005259245515,58.3299641528915,15.9377986073245
0.644, 0.1,0.1,,,0.1359437,1.854635,1.272785,,,0.1360551,1.855125,1.272866,,45.0005259245515,58.2634244518489,15.8616812737847
0.655, 0.74,-0.74,,,0.1312624,1.853163,1.271698,,,0.1305087,1.849579,1.271125,,45.0005259245515,57.3260834671861,14.9547568281968
0.666, 1.2,-1.2,,,0.1268444,1.850629,1.277028,,,0.1257154,1.844786,1.276183,,45.0005259245515,56.3189140454868,13.7177882595882
0.677, 0.62,-0.62,,,0.1238843,1.845479,1.280926,,,0.1233656,1.842436,1.280535,,45.0005259245515,54.9953736853309,12.203063225921
0.688, 0.2,0.2,,,0.1216062,1.839824,1.282324,,,0.1217523,1.840822,1.282441,,45.0005259245515,53.6063830392747,10.7696370779086
0.7, 0.56,0.56,,,0.1176696,1.834316,1.284178,,,0.1180171,1.837087,1.284472,,45.0005259245515,52.3903361932852,9.486988205402
0.712, 0.48,-0.48,,,0.1119632,1.833133,1.28293,,,0.1116922,1.830762,1.282686,,45.0005259245515,51.7591789202154,8.92132134559276
0.723, 2.29,-2.29,,,0.1046454,1.833797,1.276368,,,0.1034105,1.822481,1.275108,,45.0005259245515,51.5066600034379,9.04070194990512
0.734, 3.24,-3.24,,,0.09888794,1.832418,1.268245,,,0.09731452,1.816385,1.266326,,45.0005259245515,50.9337471668945,8.99062129675691
0.744, 4.08,-4.08,,,0.0929472,1.830373,1.269537,,,0.09113921,1.810209,1.267226,,45.0005259245515,50.4319707485773,8.47875754308996
0.755, 5.24,-5.24,,,0.08631323,1.829196,1.269923,,,0.08416124,1.803231,1.267162,,45.0005259245515,50.0073686355445,7.8763399977005
0.765, 5.52,-5.52,,,0.08169412,1.826211,1.268296,,,0.07975134,1.798822,1.265431,,45.0005259245515,49.3251317941882,7.4122739065152
0.776, 5.6,-5.6,,,0.07736602,1.8226,1.26492,,,0.07574874,1.794819,1.262041,,45.0005259245515,48.6018318566844,6.99776254392665
0.788, 5.02,-5.02,,,0.07473346,1.817745,1.264107,,,0.07370029,1.79277,1.261646,,45.0005259245515,47.6222051720468,6.3318391820621
0.799, 7.99,-7.99,,,0.06565554,1.822614,1.262571,,,0.06383909,1.782909,1.258713,,45.0005259245515,47.8634884279523,6.35724236242576
0.809, 7.22,-7.22,,,0.06466892,1.818658,1.255235,,,0.06368034,1.782751,1.251496,,45.0005259245515,46.867735667133,6.38982108319967
0.821, 9.02,-9.02,,,0.05773992,1.820574,1.257252,,,0.05661613,1.775686,1.252925,,45.0005259245515,46.6849290741793,5.93042129174811
0.832, 7.49,-7.49,,,0.05796793,1.814191,1.257854,,,0.05780651,1.776877,1.254513,,45.0005259245515,45.4736838510427,5.37173403130276
0.843, 7.44,-7.44,,,0.05379074,1.810242,1.25759,,,0.05409864,1.773169,1.254339,,45.0005259245515,44.7463438567573,5.28223635755129
0.854, 5.39,-5.39,,,0.05429115,1.801024,1.255049,,,0.05512571,1.774196,1.252687,,45.0005259245515,43.4524806677193,5.57109017215491
0.866, 1.88,-1.88,,,0.05745317,1.786472,1.266255,,,0.05804056,1.777111,1.265591,,45.0005259245515,41.5715046792486,5.60091163101498
0.876, 1.77,-1.77,,,0.05167068,1.780184,1.276373,,,0.05228286,1.771353,1.275929,,45.0005259245515,41.1169999988616,5.04480703577767
0.887, 2.81,-2.81,,,0.04506525,1.779154,1.274626,,,0.04610301,1.765173,1.273871,,45.0005259245515,40.851049515455,5.39503052525292
0.898, 2.67,-2.67,,,0.03919181,1.772619,1.264671,,,0.04027223,1.759342,1.263751,,45.0005259245515,40.5076925003387,6.26456651636456
0.911, 3.1,-3.1,,,0.03223263,1.768062,1.254342,,,0.03360009,1.75267,1.253024,,45.0005259245515,40.1700591835875,7.2099287042107
0.921, 1.31,-1.31,,,0.02965644,1.755901,1.249857,,,0.03034088,1.749411,1.249274,,45.0005259245515,39.2594583887812,8.05329994888742
0.932, 1.51,-1.51,,,0.0226104,1.749966,1.251272,,,0.02343598,1.742506,1.250615,,45.0005259245515,38.9560272433471,8.20559181879964
0.943, 1.13,1.13,,,0.02268074,1.735405,1.255691,,,0.02194093,1.741011,1.256113,,45.0005259245515,37.6898468102448,8.76618299442315
0.955, 1.84,1.84,,,0.01803447,1.72669,1.255654,,,0.01671728,1.735788,1.256347,,45.0005259245515,36.9782230808023,9.40813538117577
0.965, 3.85,3.85,,,0.01565355,1.712667,1.259249,,,0.01256135,1.731632,1.260498,,45.0005259245515,35.9069864864711,10.0696827263382
0.976, 3.63,3.63,,,0.00818545,1.706408,1.257332,,,0.005195975,1.724266,1.258576,,45.0005259245515,35.6853570993553,10.3754344284782
経過時間(s),めり込み量(mm),Y軸めり込み量(mm),,デバイス先端,X座標,Y座標,Z座標,,仮想物体との接触位置,X座標,Y座標,Z座標,,接触点の法線と床の法線とのなす角,接触点の法線とデバイスの方向ベクトルのなす角,床の法線とデバイスの方向ベクトルのなす角
0.001, 0.07,0.07,,,0.3863179,1.639066,1.249507,,,0.386455,1.639398,1.249524,,45.0005395849294,22.7634711248069,22.5692154275755
0.011, 1.35,1.35,,,0.3853337,1.631743,1.251106,,,0.3878537,1.638,1.251405,,45.0005395849294,23.195805011765,22.1064513411645
0.022, 2.54,2.54,,,0.3843697,1.625009,1.251819,,,0.3890228,1.636831,1.252362,,45.0005395849294,23.6344841442855,21.6483078775985
0.033, 3.83,3.83,,,0.3838054,1.617363,1.252173,,,0.3906462,1.635207,1.252981,,45.0005395849294,24.1394963646319,21.1384991570408
0.044, 4.91,4.91,,,0.3821149,1.612086,1.252452,,,0.3908101,1.635043,1.253512,,45.0005395849294,24.3734286296478,20.9166426661415
0.055, 6.15,6.15,,,0.3797559,1.606507,1.251583,,,0.3905741,1.635279,1.253016,,45.0005395849294,24.5308457026158,20.8043970479923
0.066, 7.16,7.16,,,0.3771691,1.602653,1.24948,,,0.3897533,1.6361,1.251336,,45.0005395849294,24.5510972129414,20.8603328806436
0.078, 7.82,7.82,,,0.3730478,1.602387,1.249799,,,0.3870381,1.638815,1.251859,,45.0005395849294,24.1691735357498,21.2536015017309
0.088, 8.05,8.05,,,0.3651106,1.608349,1.245002,,,0.3802775,1.645576,1.247475,,45.0005395849294,23.0885847051578,22.4721977157571
0.1, 8.35,8.35,,,0.3608496,1.610461,1.241144,,,0.3770294,1.648824,1.244097,,45.0005395849294,22.4822739520498,23.2518911085738
0.112, 8.08,8.08,,,0.3577015,1.615049,1.2425,,,0.3738806,1.651973,1.245378,,45.0005395849294,21.7077271066295,24.0364680865112
0.123, 8.23,8.23,,,0.3596042,1.612239,1.244525,,,0.3759689,1.649884,1.247499,,45.0005395849294,21.8822691709175,23.8831013156082
0.133, 8.21,8.21,,,0.3604757,1.611501,1.245766,,,0.3767784,1.649075,1.248671,,45.0005395849294,21.9055959738313,23.8290437849265
0.144, 8.08,8.08,,,0.3623982,1.610484,1.248092,,,0.3783705,1.647483,1.250849,,45.0005395849294,21.9845939395733,23.7008326000367
0.155, 7.89,7.89,,,0.3633333,1.61077,1.249257,,,0.3789615,1.646892,1.251887,,45.0005395849294,21.9238035501046,23.7316726108284
0.166, 7.77,7.77,,,0.3644416,1.610436,1.250256,,,0.3797955,1.646058,1.252816,,45.0005395849294,21.9934424493968,23.6465872391579
0.177, 7.72,7.72,,,0.3651891,1.610031,1.250791,,,0.3804834,1.64537,1.253469,,45.0005395849294,21.9436247585244,23.7639213480972
0.189, 7.77,7.77,,,0.3654672,1.609384,1.250722,,,0.3809652,1.644888,1.253565,,45.0005395849294,21.806585554378,23.977877017894
0.199, 7.8,7.8,,,0.365221,1.609363,1.251298,,,0.38089,1.644963,1.254244,,45.0005395849294,21.6611349725028,24.1726364415626
0.211, 7.91,7.91,,,0.3651161,1.60869,1.253051,,,0.3811023,1.644751,1.256075,,45.0005395849294,21.5220313437372,24.331296608925
0.221, 7.84,7.84,,,0.3650296,1.609209,1.254043,,,0.3809592,1.644894,1.257088,,45.0005395849294,21.3922440927403,24.4883755875385
0.232, 7.87,7.87,,,0.364572,1.609476,1.253839,,,0.3806086,1.645245,1.256991,,45.0005395849294,21.330007410755,24.6060819417772
0.243, 7.99,7.99,,,0.3641623,1.609069,1.253973,,,0.380491,1.645362,1.257291,,45.0005395849294,21.2929468053499,24.7105718803396
0.255, 8.12,8.12,,,0.3625802,1.609795,1.252993,,,0.379203,1.64665,1.256525,,45.0005395849294,21.2904264656163,24.8072924789374
0.267, 8.22,8.22,,,0.3620246,1.609664,1.253357,,,0.3788671,1.646986,1.257049,,45.0005395849294,21.3157408535232,24.8508673770822
0.277, 8.25,8.25,,,0.3598523,1.611567,1.253873,,,0.3768869,1.648966,1.257689,,45.0005395849294,21.1583015824409,25.0771276323264
0.288, 8.14,8.14,,,0.3567084,1.615391,1.253535,,,0.3737209,1.652133,1.257481,,45.0005395849294,20.8775022681919,25.4806312916001
0.299, 7.89,7.89,,,0.3506272,1.622878,1.251502,,,0.3675776,1.658276,1.255587,,45.0005395849294,20.2675134583182,26.2826474495505
0.312, 7.34,7.34,,,0.3416285,1.635238,1.246032,,,0.3580751,1.667778,1.25023,,45.0005395849294,19.2994144251315,27.6104344797047
0.323, 6.63,6.63,,,0.3341854,1.647234,1.242394,,,0.3495288,1.676324,1.246468,,45.0005395849294,18.5440535805558,28.6870361874796
0.334, 5.95,5.95,,,0.3272577,1.658561,1.241195,,,0.3413508,1.684502,1.24498,,45.0005395849294,17.9912727260309,29.4246180501404
0.344, 5.17,5.17,,,0.3209861,1.669994,1.238982,,,0.3334437,1.69241,1.242341,,45.0005395849294,17.555984782339,29.9913803015073
0.356, 4.46,4.46,,,0.3154956,1.680244,1.23868,,,0.3263106,1.699543,1.241615,,45.0005395849294,17.4127762099964,30.2091916129833
0.367, 3.63,3.63,,,0.3107661,1.690545,1.240625,,,0.3195945,1.706259,1.242913,,45.0005395849294,17.2223368808576,30.1935641405972
0.377, 2.98,2.98,,,0.3067602,1.698983,1.243073,,,0.3139583,1.711895,1.244869,,45.0005395849294,17.2716815811432,29.9423463748203
0.388, 2.47,2.47,,,0.3030957,1.706082,1.246899,,,0.3089928,1.71686,1.248289,,45.0005395849294,17.5141362144588,29.3984652565362
0.4, 1.8,1.8,,,0.2982011,1.715505,1.250859,,,0.3024833,1.72337,1.251806,,45.0005395849294,17.4778440053139,29.199812625149
0.411, 1.39,1.39,,,0.2923428,1.724127,1.253838,,,0.2956244,1.730229,1.254523,,45.0005395849294,17.6301503893777,28.8361767789512
0.422, 1.82,1.82,,,0.2898609,1.723836,1.256483,,,0.2939664,1.731887,1.257324,,45.0005395849294,18.7244764375556,27.550718137453
0.433, 1.75,1.75,,,0.2854206,1.72873,1.264742,,,0.2893086,1.736545,1.265434,,45.0005395849294,19.0770986040232,26.8529494463563
0.444, 2.39,2.39,,,0.2775187,1.732413,1.261776,,,0.2827179,1.743135,1.262774,,45.0005395849294,19.6984972445879,26.325996951459
0.456, 2.64,2.64,,,0.2708414,1.737502,1.261798,,,0.2764976,1.749356,1.26291,,45.0005395849294,20.0593668642489,25.9839837760244
0.466, 2.87,2.87,,,0.2624034,1.744403,1.264721,,,0.2685251,1.757328,1.265852,,45.0005395849294,20.1504030380681,25.7626668700545
0.478, 2.83,2.83,,,0.2510527,1.755943,1.265062,,,0.2571999,1.768653,1.26615,,45.0005395849294,19.6706966678923,26.2030347668003
0.488, 3.03,3.03,,,0.2396116,1.76606,1.261351,,,0.246256,1.779597,1.262628,,45.0005395849294,19.4477131958113,26.6029115957257
0.5, 3.33,3.33,,,0.2270701,1.776532,1.256287,,,0.2345029,1.791351,1.257829,,45.0005395849294,19.0903952744199,27.1772895078052
0.511, 3.33,3.33,,,0.2145962,1.788972,1.252305,,,0.2221538,1.803699,1.253953,,45.0005395849294,18.6901274171754,27.764619165738
0.522, 3.07,3.07,,,0.2043543,1.800882,1.252638,,,0.2114236,1.81443,1.254104,,45.0005395849294,18.2583775113751,28.1051689731835
0.533, 3.21,3.21,,,0.1919835,1.812296,1.248399,,,0.1994398,1.826414,1.24999,,45.0005395849294,18.0510163890385,28.4239082796689
0.544, 3.36,3.36,,,0.1846879,1.818597,1.249321,,,0.1924126,1.833441,1.250947,,45.0005395849294,18.3393664772048,28.0576769616587
0.555, 3.68,3.68,,,0.1765212,1.824683,1.250026,,,0.1848536,1.841,1.251696,,45.0005395849294,18.663604085819,27.5618650058683
0.567, 4.17,4.17,,,0.1686783,1.829338,1.250892,,,0.1779228,1.847931,1.252679,,45.0005395849294,19.1811992218138,26.9076421846132
0.579, 4.54,4.54,,,0.1613703,1.834221,1.252322,,,0.171249,1.854604,1.254097,,45.0005395849294,19.6416495817078,26.2609820901061
0.589, 4.94,4.94,,,0.1526114,1.840406,1.253775,,,0.1632269,1.862626,1.255507,,45.0005395849294,19.8595957894162,25.8713539597451
0.6, 5.44,5.44,,,0.1455153,1.844308,1.251429,,,0.1569287,1.868925,1.253315,,45.0005395849294,20.4984353175412,25.2119555627905
0.611, 3.23,3.23,,,0.1381376,1.849256,1.254687,,,0.1448399,1.86391,1.255677,,45.0005259245515,69.6182379706142,24.8505583110309
0.622, 2.95,-2.95,,,0.1289995,1.855403,1.252366,,,0.1229133,1.841983,1.251475,,45.0005259245515,69.4351206040619,24.662606878228
0.633, 9.18,-9.18,,,0.1195977,1.861598,1.247672,,,0.1007873,1.819857,1.244735,,45.0005259245515,69.302949617111,24.5575893075668
0.644, 13.17,-13.17,,,0.111967,1.864629,1.244586,,,0.08545288,1.804523,1.240319,,45.0005259245515,68.8500397858508,24.1159287975566
0.655, 15.91,-15.91,,,0.1056878,1.866423,1.247247,,,0.07438505,1.793455,1.2427,,45.0005259245515,68.2564895333046,23.4737083258865
0.666, 18.01,-18.01,,,0.09937406,1.86714,1.248276,,,0.0649834,1.784054,1.243738,,45.0005259245515,67.5154618403033,22.6945271972433
0.678, 18.89,-18.89,,,0.09416966,1.866124,1.247168,,,0.05937068,1.778441,1.242589,,45.0005259245515,66.6758198788097,21.8498821223219
0.689, 20.19,-20.19,,,0.08901868,1.866259,1.245806,,,0.05300022,1.77207,1.241146,,45.0005259245515,65.9544836206376,21.1197878543303
0.7, 22.1,-22.1,,,0.08298865,1.867115,1.245834,,,0.04457334,1.763644,1.241024,,45.0005259245515,65.3931103883759,20.5465386309797
0.711, 23.99,-23.99,,,0.07754948,1.868465,1.245309,,,0.03670639,1.755777,1.240404,,45.0005259245515,64.9450978026144,20.0857160257862
