経過時間(s),めり込み量(mm),Y軸めり込み量(mm),,デバイス先端,X座標,Y座標,Z座標,,仮想物体との接触位置,X座標,Y座標,Z座標,,接触点の法線と床の法線とのなす角,接触点の法線とデバイスの方向ベクトルのなす角,床の法線とデバイスの方向ベクトルのなす角
0, 0.6,0.6,,,0.06900123,1.792502,1.042135,,,0.07017961,1.795263,1.042039,,45.8734855478893,31.335250719162,23.1690238407746
0.011, 2.27,2.27,,,0.06810289,1.784173,1.043891,,,0.07248722,1.794634,1.04349,,45.8734855478893,31.3145586616472,22.8017116453584
0.022, 3.94,3.94,,,0.06711729,1.776594,1.046563,,,0.0746045,1.794775,1.045798,,45.8734855478893,31.2679323765756,22.4633509134809
0.033, 5.5,5.5,,,0.06627321,1.769542,1.049257,,,0.07657397,1.795022,1.048104,,45.8734855478893,31.2571099421369,22.1096273790402
0.044, 6.85,6.85,,,0.06581114,1.762582,1.050552,,,0.07844174,1.794363,1.049074,,45.8734855478893,31.3306403416005,21.7808118362622
0.056, 7.9,7.9,,,0.06506911,1.757054,1.051047,,,0.07945234,1.793788,1.049301,,45.8734855478893,31.3989388163055,21.4963412954364
0.066, 8.91,8.91,,,0.06364705,1.75201,1.051173,,,0.07974513,1.793497,1.049197,,45.8734855478893,31.4661478758681,21.3230867217711
0.078, 9.76,9.76,,,0.06137181,1.747668,1.050006,,,0.07889563,1.793167,1.047898,,45.8734855478893,31.5885312020108,21.1737190265159
0.089, 10.08,10.08,,,0.06001413,1.744594,1.046885,,,0.07801321,1.791608,1.044889,,45.8734855478893,31.8224037028731,21.0404295961195
0.1, 10.46,10.46,,,0.0587311,1.741588,1.044589,,,0.07732181,1.790443,1.04261,,45.8734855478893,31.9649429166956,20.9154951943929
0.111, 10.85,10.85,,,0.05816901,1.738614,1.043139,,,0.07733352,1.789312,1.041081,,45.8734855478893,32.0136011829887,20.7905846983276
0.122, 11.02,11.02,,,0.05902467,1.736804,1.042973,,,0.07836793,1.788367,1.040826,,45.8734855478893,32.0246934098922,20.6524765696059
0.134, 11.2,11.2,,,0.05963806,1.735196,1.042913,,,0.07920825,1.787637,1.040671,,45.8734855478893,32.0123000319881,20.5604585561208
0.145, 11.16,11.16,,,0.06093305,1.734646,1.043149,,,0.08041672,1.786859,1.040819,,45.8734855478893,31.9237124809182,20.5687606508259
0.155, 10.95,10.95,,,0.06207742,1.735374,1.043577,,,0.08121438,1.786595,1.041257,,45.8734855478893,31.8814370262268,20.5950107746231
0.167, 10.65,10.65,,,0.0637178,1.736168,1.04386,,,0.08236678,1.785983,1.041575,,45.8734855478893,31.8377443073221,20.6356503990538
0.178, 10.47,10.47,,,0.06542683,1.736334,1.044382,,,0.08378802,1.785309,1.042077,,45.8734855478893,31.7679124551911,20.6698781835795
0.189, 10.02,10.02,,,0.06898554,1.737172,1.045416,,,0.08657481,1.784012,1.043096,,45.8734855478893,31.637155317359,20.7139909591065
0.201, 9.52,9.52,,,0.07256981,1.737909,1.045876,,,0.08929875,1.782407,1.043632,,45.8734855478893,31.5844638244733,20.7408438470812
0.211, 9.04,9.04,,,0.07814229,1.737908,1.047491,,,0.0940396,1.780191,1.045351,,45.8734855478893,31.5753796731299,20.7433419887006
0.222, 8.47,8.47,,,0.08363504,1.738574,1.049081,,,0.09853053,1.778159,1.047073,,45.8734855478893,31.5636180877065,20.7591487535474
0.233, 7.89,7.89,,,0.08977643,1.739212,1.051289,,,0.1036642,1.776107,1.049408,,45.8734855478893,31.5472256341546,20.7675208576896
0.244, 7.37,7.37,,,0.09607339,1.739169,1.053185,,,0.1090353,1.773629,1.051401,,45.8734855478893,31.5160287459887,20.7589267724056
0.255, 6.96,6.96,,,0.103273,1.738307,1.055754,,,0.1154746,1.770847,1.054048,,45.8734855478893,31.5099806136469,20.7040820624439
0.266, 6.32,6.32,,,0.1108376,1.738155,1.057778,,,0.1219135,1.767734,1.056242,,45.8734855478893,31.5456137095553,20.6759929102638
0.277, 5.82,5.82,,,0.1183405,1.737492,1.060129,,,0.1285204,1.764695,1.058706,,45.8734855478893,31.5316664636583,20.6666184758889
0.289, 5.35,5.35,,,0.1271989,1.736279,1.063478,,,0.1365479,1.761294,1.062097,,45.8734855478893,31.40336136367,20.6615760888744
0.3, 4.93,4.93,,,0.1354824,1.735011,1.066617,,,0.1440935,1.758095,1.065282,,45.8734855478893,31.2939997928176,20.6441283711251
0.311, 4.61,4.61,,,0.1446323,1.732912,1.070163,,,0.1526389,1.754465,1.068878,,45.8734855478893,31.2420254697747,20.580394170206
0.322, 4.39,4.39,,,0.1533751,1.729946,1.073058,,,0.1609715,1.750521,1.071834,,45.8734855478893,31.2988458118989,20.4654574575988
0.334, 4.16,4.16,,,0.1627254,1.726278,1.075391,,,0.169875,1.74577,1.074261,,45.8734855478893,31.4237119117357,20.3344561405106
0.345, 3.76,3.76,,,0.1728498,1.722466,1.076952,,,0.1792753,1.740125,1.075965,,45.8734855478893,31.5892483718537,20.1732209919028
0.356, 3.64,3.64,,,0.1823944,1.718088,1.079497,,,0.1885725,1.735208,1.078558,,45.8734855478893,31.7063007354975,20.0174175510813
0.367, 3.41,3.41,,,0.1927219,1.713656,1.081824,,,0.1984593,1.729707,1.080946,,45.8734855478893,31.7901617957933,19.8447025623454
0.378, 3.08,3.08,,,0.203705,1.708632,1.083185,,,0.2088412,1.723145,1.082382,,45.8734855478893,31.8400734017642,19.6710928188531
0.389, 2.88,2.88,,,0.21387,1.703726,1.084939,,,0.2186292,1.717287,1.084183,,45.8734855478893,31.8929049135241,19.5251504633714
0.4, 2.88,2.88,,,0.2242962,1.697441,1.08682,,,0.2290156,1.711038,1.086051,,45.8734855478893,31.9431272930937,19.3374654079387
0.411, 2.91,2.91,,,0.2358064,1.690883,1.089607,,,0.2405067,1.704633,1.08881,,45.8734855478893,32.0018737485102,19.0816218966752
0.422, 3.27,3.27,,,0.2471928,1.682757,1.092866,,,0.2523805,1.698236,1.091962,,45.8734855478893,32.1411993584176,18.7473883064888
0.434, 3.52,3.52,,,0.2583424,1.67475,1.095155,,,0.2638463,1.691461,1.094192,,45.8734855478893,32.3205054795191,18.447186132895
0.444, 3.89,3.89,,,0.2685008,1.666286,1.096763,,,0.2745081,1.684781,1.095746,,45.8734855478893,32.5611979240779,18.1934855934239
0.455, 4.12,4.12,,,0.2787512,1.658028,1.097482,,,0.2850482,1.677601,1.096498,,45.8734855478893,32.8593732390919,17.999574820736
0.467, 4.3,4.3,,,0.2884366,1.650072,1.097707,,,0.2949913,1.670529,1.096801,,45.8734855478893,33.1742654416343,17.8915741650379
0.478, 4.46,4.46,,,0.2981433,1.642205,1.097888,,,0.3049144,1.663426,1.09704,,45.8734855478893,33.4131615464914,17.797278283528
0.489, 4.68,4.68,,,0.3074944,1.634962,1.099153,,,0.3145684,1.657267,1.098297,,45.8734855478893,33.5373992689421,17.6889702693257
0.501, 5.07,5.07,,,0.3172193,1.626992,1.101181,,,0.3248191,1.651178,1.100246,,45.8734855478893,33.5994856867698,17.5384158287353
0.511, 5.54,5.54,,,0.3260246,1.618833,1.10261,,,0.3342246,1.645257,1.10158,,45.8734855478893,33.6832477093254,17.3386720746585
0.522, 5.93,5.93,,,0.3345209,1.610741,1.103191,,,0.3432237,1.639063,1.102135,,45.8734855478893,33.8450002447484,17.170183265354
0.533, 6.1,6.1,,,0.3420092,1.604083,1.102876,,,0.3509086,1.633224,1.101859,,45.8734855478893,34.0043075725167,17.0602086850406
経過時間(s),めり込み量(mm),Y軸めり込み量(mm),,デバイス先端,X座標,Y座標,Z座標,,仮想物体との接触位置,X座標,Y座標,Z座標,,接触点の法線と床の法線とのなす角,接触点の法線とデバイスの方向ベクトルのなす角,床の法線とデバイスの方向ベクトルのなす角
0, 0.99,-0.99,,,0.04534194,1.78719,0.9967585,,,0.04276165,1.783249,0.9982432,,45.8734855478893,13.3943847878031,36.9477057964399
0.011, 0.16,0.16,,,0.04454983,1.781064,0.9986023,,,0.04496843,1.781714,0.9983561,,45.8734855478893,13.3202943128431,36.6322535184011
0.022, 1.17,1.17,,,0.0447827,1.775188,1.000419,,,0.04775509,1.779875,0.9986358,,45.8734855478893,13.2640588056504,36.3586771289984
0.033, 1.99,1.99,,,0.04523197,1.770037,1.001688,,,0.05024696,1.778048,0.9986372,,45.8734855478893,13.2754857118138,36.1041262309993
0.045, 2.62,2.62,,,0.04575832,1.765962,1.002713,,,0.0523289,1.776552,0.9986792,,45.8734855478893,13.2922948068935,35.9288260157345
0.055, 3.2,3.2,,,0.04771626,1.761958,1.004793,,,0.05569287,1.774933,0.999837,,45.8734855478893,13.2750690702861,35.7649253858772
0.066, 3.79,3.79,,,0.04923014,1.757742,1.006204,,,0.05859737,1.773148,1.000307,,45.8734855478893,13.2778651788997,35.5644900751662
0.08, 4.32,4.32,,,0.051955,1.75362,1.008323,,,0.06252828,1.771195,1.001576,,45.8734855478893,13.2703681927206,35.3799212934557
0.089, 4.54,4.54,,,0.05647099,1.751176,1.011637,,,0.06750656,1.769676,1.004483,,45.8734855478893,13.1898044061549,35.273701609534
0.101, 4.91,4.91,,,0.06038804,1.748044,1.014827,,,0.07223543,1.768079,1.007035,,45.8734855478893,13.1372426868597,35.1533605098964
0.111, 5.2,5.2,,,0.0646892,1.744911,1.017635,,,0.07716279,1.766163,1.00935,,45.8734855478893,13.1358305452881,35.0317080139746
0.123, 5.41,5.41,,,0.06932871,1.741599,1.01974,,,0.08223763,1.763746,1.01113,,45.8734855478893,13.2173146998189,34.8783702713748
0.133, 5.55,5.55,,,0.07450326,1.737952,1.021223,,,0.08767711,1.760723,1.012449,,45.8734855478893,13.3990130946106,34.6647458657435
0.145, 5.58,5.58,,,0.07933244,1.735266,1.022671,,,0.09254615,1.758215,1.013898,,45.8734855478893,13.5488793936614,34.5125795005538
0.157, 5.58,5.58,,,0.08559816,1.732148,1.024713,,,0.09877716,1.75515,1.01595,,45.8734855478893,13.6322717322384,34.3913982876716
0.167, 5.72,5.72,,,0.09329869,1.728051,1.028095,,,0.1066868,1.751657,1.019098,,45.8734855478893,13.6859979987546,34.2057742417636
0.178, 5.95,5.95,,,0.1010736,1.723385,1.031657,,,0.1148226,1.748014,1.022267,,45.8734855478893,13.7802366774318,33.9198761914411
0.189, 6.21,6.21,,,0.1099587,1.71768,1.035285,,,0.1241056,1.743528,1.025435,,45.8734855478893,13.9277798584557,33.5565955150702
0.2, 6.39,6.39,,,0.1189088,1.712598,1.038953,,,0.1332261,1.739294,1.028783,,45.8734855478893,14.0857681059772,33.1939705368415
0.211, 6.47,6.47,,,0.1276789,1.708305,1.042567,,,0.1420013,1.735384,1.032228,,45.8734855478893,14.1636886094077,32.9714088289299
0.222, 6.48,6.48,,,0.1366107,1.703637,1.045233,,,0.1508355,1.730825,1.034846,,45.8734855478893,14.245716617736,32.7897736133863
0.233, 6.54,6.54,,,0.1451792,1.699044,1.048082,,,0.1594454,1.726538,1.037612,,45.8734855478893,14.3635766512266,32.6198453417542
0.244, 6.59,6.59,,,0.1536407,1.694264,1.050488,,,0.16794,1.722048,1.039984,,45.8734855478893,14.542930583651,32.4147894081983
0.255, 6.82,6.82,,,0.1627503,1.687834,1.052901,,,0.1774513,1.716664,1.042156,,45.8734855478893,14.8315555869238,32.1299363767897
0.266, 7.2,7.2,,,0.1718837,1.681019,1.056218,,,0.1872397,1.711559,1.044986,,45.8734855478893,15.147735280089,31.7748280215333
0.277, 7.61,7.61,,,0.1815352,1.673259,1.0591,,,0.1975536,1.705704,1.047316,,45.8734855478893,15.4940719651478,31.3568614370945
0.288, 8.13,8.13,,,0.1917202,1.664565,1.062167,,,0.2085265,1.699383,1.049673,,45.8734855478893,15.8749198875751,30.876982604647
0.3, 8.47,8.47,,,0.2016394,1.65655,1.064283,,,0.2188837,1.693036,1.051377,,45.8734855478893,16.2755565750245,30.4061127914641
0.31, 8.9,8.9,,,0.2113382,1.648011,1.066161,,,0.2291673,1.686501,1.05275,,45.8734855478893,16.6776532153684,29.9482749788549
0.322, 9.14,9.14,,,0.2208584,1.641269,1.068647,,,0.2389277,1.680951,1.054945,,45.8734855478893,16.9694798697255,29.5961206803324
0.333, 9.31,9.31,,,0.2300387,1.635181,1.071062,,,0.2482481,1.675701,1.057108,,45.8734855478893,17.1380062450695,29.366527292866
0.344, 9.39,9.39,,,0.2390481,1.629957,1.073623,,,0.2572362,1.67089,1.059537,,45.8734855478893,17.2652731563328,29.1841988131408
0.355, 9.44,9.44,,,0.2476272,1.624895,1.075686,,,0.2657186,1.666166,1.061579,,45.8734855478893,17.4933348739204,28.9153830654571
0.366, 9.56,9.56,,,0.2559927,1.619092,1.077049,,,0.2740436,1.661041,1.062917,,45.8734855478893,17.8724991547641,28.5029438114504
0.378, 9.72,9.72,,,0.2639074,1.613743,1.078918,,,0.2819455,1.656554,1.064703,,45.8734855478893,18.2753522385375,28.0576701314698
0.389, 9.65,9.65,,,0.2723409,1.609375,1.080603,,,0.2899705,1.652041,1.066575,,45.8734855478893,18.6043709794377,27.6813489167889
0.399, 9.47,9.47,,,0.2799682,1.606797,1.082926,,,0.2970206,1.648767,1.069161,,45.8734855478893,18.815932667997,27.4146402824055
0.411, 9.22,9.22,,,0.2873008,1.604795,1.085177,,,0.3037044,1.645724,1.071696,,45.8734855478893,18.9113879740863,27.260711728459
0.422, 8.92,8.92,,,0.2957355,1.602967,1.088286,,,0.3113602,1.642594,1.075085,,45.8734855478893,18.9538478438801,27.1412892892392
0.433, 8.82,8.82,,,0.3043792,1.600536,1.092574,,,0.3194873,1.639785,1.079382,,45.8734855478893,19.1140943226331,26.903515042922
0.444, 8.67,8.67,,,0.3146416,1.596864,1.096332,,,0.3290509,1.635584,1.083219,,45.8734855478893,19.4024905145751,26.5417899420914
0.455, 8.82,8.82,,,0.3243319,1.592057,1.100751,,,0.3385366,1.631585,1.087252,,45.8734855478893,19.6981523200444,26.197860898648
