経過時間(s),めり込み量(mm),Y軸めり込み量(mm),,デバイス先端,X座標,Y座標,Z座標,,仮想物体との接触位置,X座標,Y座標,Z座標,,接触点の法線と床の法線とのなす角,接触点の法線とデバイスの方向ベクトルのなす角,床の法線とデバイスの方向ベクトルのなす角
0.002, 0.09,-0.09,,,-0.1904894,1.794045,1.265913,,,-0.1904099,1.793639,1.265752,,36.4156545654691,37.4347665725998,24.1841179892379
0.009, 2.4,2.4,,,-0.186696,1.784829,1.270382,,,-0.1890588,1.795837,1.274547,,35.8913112027621,34.8140674572231,23.7245436010805
0.021, 4.03,4.03,,,-0.1841561,1.778396,1.273163,,,-0.1883933,1.796936,1.279885,,35.627761530782,33.0293220012909,23.4118677948621
0.032, 5.49,5.49,,,-0.1813516,1.77271,1.274192,,,-0.1874177,1.797956,1.28308,,35.3794978217389,31.7254662457752,23.2916684216458
0.043, 6.4,6.4,,,-0.179479,1.768996,1.273278,,,-0.1867895,1.798438,1.283493,,35.2606013070705,31.1138877094164,23.3085048374813
0.054, 7.01,7.01,,,-0.1774642,1.766898,1.271324,,,-0.1856422,1.799135,1.282432,,35.0861036390109,30.8112078847702,23.3662301796454
0.066, 7.33,7.33,,,-0.175747,1.766163,1.269588,,,-0.1844462,1.799833,1.281139,,34.9105028954309,30.5928535732703,23.4415722867359
0.078, 7.7,7.7,,,-0.1730448,1.765954,1.268924,,,-0.1822613,1.801315,1.280974,,34.5376053129763,30.2003260276873,23.4191726819762
0.087, 8.01,8.01,,,-0.1704162,1.76624,1.272037,,,-0.1800814,1.803115,1.284277,,34.0839270854559,29.1941196626342,23.122759555719
0.099, 8.43,8.43,,,-0.1674556,1.766203,1.277095,,,-0.1776835,1.805159,1.289552,,33.5637364776488,27.8590704340471,22.6705190829788
0.109, 8.57,8.57,,,-0.1650432,1.767349,1.283945,,,-0.1753713,1.807114,1.296161,,33.0614238894967,26.516465308901,22.1057256335854
0.12, 8.61,8.61,,,-0.1625336,1.76896,1.289287,,,-0.1727864,1.809026,1.301251,,32.5617682448577,25.5143553496886,21.6578513591507
0.131, 8.28,8.28,,,-0.1602091,1.772361,1.293224,,,-0.1698809,1.810983,1.304616,,32.0411712408063,24.9103088042274,21.3434850811597
0.142, 7.62,7.62,,,-0.1576408,1.777668,1.294057,,,-0.1662736,1.813213,1.304636,,31.4339708555836,24.880244019885,21.2073713676201
0.153, 7.05,7.05,,,-0.1540365,1.782981,1.294839,,,-0.1618189,1.815898,1.304737,,30.6889338416512,24.7221780789638,21.1301731566743
0.165, 6.48,6.48,,,-0.1503246,1.788323,1.29635,,,-0.1572455,1.818592,1.305541,,29.9250899023624,24.5335265517905,21.0125419345144
0.176, 5.83,5.83,,,-0.1471206,1.793661,1.297535,,,-0.1531103,1.820947,1.305874,,29.2422554194704,24.4685116904376,20.8243207092468
0.187, 5.17,5.17,,,-0.143949,1.798987,1.299512,,,-0.1490439,1.823218,1.306961,,28.5706207389581,24.3316620240354,20.6331027385643
0.198, 4.5,4.5,,,-0.1405528,1.804413,1.300776,,,-0.144774,1.825517,1.30731,,27.8748737837995,24.3118698439188,20.4440653057136
0.209, 3.97,3.97,,,-0.1368397,1.809162,1.302312,,,-0.140395,1.827814,1.30811,,27.1637759789084,24.1675479507726,20.2468094479727
0.221, 3.66,3.66,,,-0.132034,1.813214,1.302859,,,-0.1351776,1.830445,1.308225,,26.32665947979,23.9440641673487,20.0632003078139
0.232, 3.83,3.83,,,-0.1251333,1.815757,1.304484,,,-0.1283425,1.833776,1.310079,,25.2320943749979,23.1686686709477,19.9119662634199
0.242, 3.87,3.87,,,-0.1180623,1.818794,1.305889,,,-0.1212422,1.837054,1.311523,,24.1091908161279,22.3743586737139,19.7261578024095
0.254, 4.23,4.23,,,-0.1101266,1.820442,1.308462,,,-0.1135379,1.840423,1.314568,,22.9041456970379,21.2990017678806,19.5098388872256
0.265, 4.65,4.65,,,-0.1013232,1.82191,1.312267,,,-0.1050121,1.843892,1.318898,,21.5990809980727,19.9596409824999,19.2629173103171
0.276, 5.06,5.06,,,-0.09299535,1.822974,1.31554,,,-0.09691851,1.846936,1.322712,,20.3886844259169,18.8419949615973,19.0588671220885
0.287, 5.33,5.33,,,-0.08561525,1.824281,1.317445,,,-0.08962347,1.849509,1.324987,,19.3073903783128,18.0980285797874,18.9253335124361
0.298, 5.51,5.51,,,-0.0780694,1.825934,1.317618,,,-0.08206846,1.852049,1.325472,,18.1761625266235,17.6918030902052,18.8723619818021
0.309, 5.59,5.59,,,-0.07152772,1.827682,1.317713,,,-0.07540342,1.854155,1.325726,,17.183042803656,17.447490645487,18.8104155828485
0.321, 5.53,5.53,,,-0.06492689,1.829952,1.318609,,,-0.06854791,1.856173,1.326553,,16.1778729197806,17.1061519512142,18.6436172453165
0.332, 5.73,5.73,,,-0.05759232,1.830931,1.320422,,,-0.06113381,1.858164,1.328665,,15.1257369489318,16.5447531057438,18.4641130487345
0.343, 5.77,5.77,,,-0.05059682,1.832521,1.321519,,,-0.05396461,1.859968,1.329827,,14.1045169747272,16.1297678987948,18.3191679008439
0.354, 5.88,5.88,,,-0.04331982,1.833735,1.322601,,,-0.04652276,1.861686,1.331107,,13.0602852400755,15.7981827143854,18.2470803788023
0.365, 5.73,5.73,,,-0.03721996,1.835821,1.323171,,,-0.04008408,1.863077,1.331546,,12.1485608791819,15.7455117120666,18.226991085465
0.376, 5.64,5.64,,,-0.03111529,1.837557,1.322733,,,-0.03363901,1.864395,1.331089,,11.2144872861724,15.9122827288426,18.2572641905714
0.387, 5.57,5.57,,,-0.02454806,1.839167,1.322604,,,-0.02677678,1.865664,1.330944,,10.2374663186306,15.970735486133,18.2881554277804
0.399, 5.78,5.78,,,-0.01717403,1.839417,1.323008,,,-0.01922296,1.86688,1.331711,,9.20861104691998,15.8207462436807,18.2782601914957
0.41, 6.01,6.01,,,-0.009462303,1.839375,1.323785,,,-0.01134563,1.867975,1.33284,,8.1753878693567,15.4908378706658,18.1652222714249
0.421, 6.22,6.22,,,-0.001337668,1.839281,1.325691,,,-0.003012046,1.868908,1.335026,,7.1853972267156,14.9646913380682,17.9955620847103
0.432, 6.52,6.52,,,0.007534055,1.838632,1.327399,,,0.006108865,1.86973,1.337131,,6.18668742095479,14.4361935129142,17.7996927553324
0.443, 6.71,6.71,,,0.01561265,1.838307,1.328851,,,0.01455333,1.870307,1.338823,,5.37541721071019,14.059925232198,17.6486448335881
0.454, 6.74,6.74,,,0.02229375,1.838482,1.33014,,,0.02175598,1.87066,1.340149,,4.81605077334815,13.8339842882886,17.5505377066274
0.465, 6.85,6.85,,,0.02942837,1.838171,1.331551,,,0.02943263,1.870879,1.341694,,4.43972315536517,13.5495931484098,17.4784348166607
0.476, 6.89,6.89,,,0.03627098,1.838156,1.33137,,,0.03685451,1.871054,1.341567,,4.10078612629247,13.5516481815191,17.4983789684821
0.487, 7.03,7.03,,,0.04478141,1.837575,1.330261,,,0.04592991,1.871129,1.340682,,3.94084102962822,13.6608167995328,17.5994435672711
0.499, 7.24,7.24,,,0.0546889,1.83645,1.328454,,,0.05643069,1.870981,1.339219,,4.22424307276542,13.8753718184126,17.7732855371887
0.51, 7.32,7.32,,,0.06356806,1.835766,1.326862,,,0.0659977,1.870608,1.337783,,4.88699850760371,14.1374401931577,18.0464640680833
0.521, 7.27,7.27,,,0.07094176,1.835525,1.32614,,,0.07411215,1.870081,1.33703,,5.69959505517085,14.3070662289274,18.4101972444741
0.532, 7.34,7.34,,,0.07813476,1.834703,1.324327,,,0.08217022,1.869439,1.33538,,6.55197233090444,14.6735989290264,18.9490410983855
0.543, 7.39,7.39,,,0.08565581,1.833656,1.32327,,,0.09048225,1.868559,1.334457,,7.57175625787606,14.8819162778202,19.4725819138873
0.554, 7.7,7.7,,,0.0958335,1.830753,1.323457,,,0.1015164,1.867026,1.335099,,9.09033693322238,14.7442794321381,19.8784471110008
0.565, 8.26,8.26,,,0.1079418,1.825885,1.324661,,,0.114617,1.864729,1.337069,,10.9852832194779,14.3566918207349,20.1572024911976
0.577, 8.74,8.74,,,0.1215267,1.820651,1.325969,,,0.1291122,1.861661,1.339016,,13.0975012322799,14.1090146541705,20.4204499273154
0.588, 9.07,9.07,,,0.134256,1.81588,1.326033,,,0.1426923,1.858344,1.33959,,15.0528229740237,14.2745818501388,20.82026528454
0.599, 9.41,9.41,,,0.1457184,1.811031,1.324943,,,0.155124,1.854927,1.339054,,16.8335232505325,14.6628225983633,21.3317730146064
0.61, 9.66,9.66,,,0.1577139,1.806086,1.323353,,,0.1679636,1.850973,1.337914,,18.6881347095405,15.2790337103977,21.843540291854
0.621, 9.96,9.96,,,0.1704707,1.800033,1.322407,,,0.1815699,1.846209,1.337444,,20.711450128806,15.9008182566398,22.2370530921973
0.632, 10.43,10.43,,,0.1845334,1.792094,1.321306,,,0.1965134,1.84032,1.337051,,22.9779271059465,16.8240036746417,22.5049826228609
0.643, 10.71,10.71,,,0.1998293,1.783823,1.320176,,,0.2124243,1.833282,1.336362,,25.4359328273681,18.0931689003282,22.7197766983549
0.654, 10.72,10.72,,,0.2149334,1.776247,1.319231,,,0.227873,1.825641,1.335466,,27.8744076234016,19.5025049718084,22.9933889462498
0.665, 10.68,10.68,,,0.2277236,1.769329,1.318334,,,0.2411149,1.818416,1.334559,,30.0118025665573,20.6826950332004,23.3919543788911
0.676, 10.41,10.41,,,0.2390501,1.763822,1.318683,,,0.2528008,1.811441,1.334501,,31.9527885954058,21.4623935486588,23.9457478089323
0.687, 10.26,10.26,,,0.248919,1.758085,1.317702,,,0.2631964,1.804829,1.333367,,33.6986771062311,22.2555987628251,24.5758993366748
0.699, 10.38,10.38,,,0.2584073,1.750887,1.315053,,,0.2734195,1.797931,1.331015,,35.4374997865566,23.3431253578734,25.1580807396639
0.71, 10.48,10.48,,,0.2703588,1.741597,1.311414,,,0.2857447,1.788975,1.327671,,37.5900440888699,25.1643713437145,25.470300630768
0.721, 10.46,10.46,,,0.2837453,1.730989,1.308599,,,0.299241,1.778232,1.324903,,40.042498574198,27.2222150758208,25.6412978269754
経過時間(s),めり込み量(mm),Y軸めり込み量(mm),,デバイス先端,X座標,Y座標,Z座標,,仮想物体との接触位置,X座標,Y座標,Z座標,,接触点の法線と床の法線とのなす角,接触点の法線とデバイスの方向ベクトルのなす角,床の法線とデバイスの方向ベクトルのなす角
0, 0.71,-0.71,,,-0.178912,1.804874,1.262429,,,-0.1777611,1.801714,1.261273,,34.4149043830461,29.9256602231423,27.4801366720815
0.01, 0.53,0.53,,,-0.1779812,1.799303,1.264815,,,-0.1788563,1.801671,1.265666,,34.4307162705347,28.9934452953089,27.4411892269706
0.021, 1.87,1.87,,,-0.175908,1.794085,1.268708,,,-0.1790217,1.8024,1.27162,,34.2521990362603,27.7008593516102,27.318186061178
0.033, 3.07,3.07,,,-0.17455,1.788888,1.272034,,,-0.1797304,1.802555,1.276698,,34.2182905630694,26.5820914721675,27.1908201121745
0.044, 4.26,4.26,,,-0.1723913,1.784247,1.276213,,,-0.1796511,1.803234,1.282513,,34.051524668935,25.3315641246601,27.0162046233549
0.055, 5.17,5.17,,,-0.170523,1.780591,1.277934,,,-0.1794134,1.803669,1.285451,,33.9432354377525,24.5954592903661,26.932565544201
0.066, 6,6,,,-0.1682519,1.777406,1.276795,,,-0.1786429,1.804183,1.285462,,33.8110917715575,24.3584209969116,26.968823602401
0.077, 6.52,6.52,,,-0.1658429,1.775892,1.273988,,,-0.1771823,1.804965,1.283457,,33.6072413663565,24.5224462777178,27.0979858911063
0.089, 6.68,6.68,,,-0.164529,1.775452,1.268759,,,-0.1761055,1.805178,1.278643,,33.5464424391516,25.3698968527628,27.2789807764331
0.1, 6.47,6.47,,,-0.1642565,1.776575,1.266114,,,-0.1753527,1.805351,1.275839,,33.4984262106225,26.019709079484,27.3112944004972
0.111, 6.16,6.16,,,-0.1651261,1.77777,1.26653,,,-0.1755863,1.805196,1.275822,,33.5385569859742,26.1920740210347,27.1947286878182
0.122, 6.61,6.61,,,-0.1636922,1.776304,1.266346,,,-0.1747485,1.805799,1.276306,,33.3825179036329,26.1960884646077,26.9397355350827
0.134, 7.07,7.07,,,-0.1618539,1.775205,1.268306,,,-0.1735442,1.806868,1.278878,,33.1063084763784,25.7615825775539,26.6330720027139
0.146, 7.79,7.79,,,-0.1595048,1.773164,1.272134,,,-0.1722678,1.808161,1.283577,,32.770953027652,24.8832305200164,26.2623720335635
0.155, 8.5,8.5,,,-0.1551668,1.772228,1.273882,,,-0.1690852,1.810411,1.286275,,32.1738374164582,24.1776634606519,26.1834287093333
0.166, 9.34,9.34,,,-0.1500636,1.770936,1.275388,,,-0.1653872,1.812912,1.289003,,31.4980516885935,23.5039131291031,26.1944560494415
0.178, 10.11,10.11,,,-0.1442984,1.77034,1.275988,,,-0.1609027,1.815729,1.290735,,30.7191540127929,22.9380729532485,26.2375323437907
0.189, 10.8,10.8,,,-0.1389708,1.76976,1.276467,,,-0.1566999,1.818282,1.292275,,29.9974250187546,22.4837561030584,26.2506070330456
0.201, 11.25,11.25,,,-0.1337434,1.770437,1.27672,,,-0.1520814,1.820955,1.293245,,29.2236533997835,22.1596960793577,26.2097249369061
0.211, 11.42,11.42,,,-0.1301057,1.77165,1.27772,,,-0.1484833,1.823013,1.294558,,28.6158400050999,21.9115177476769,26.0552858263333
0.222, 11.64,11.64,,,-0.1261919,1.772695,1.279303,,,-0.1446404,1.82518,1.296475,,27.9635654952513,21.5381949859583,25.8222551462628
0.233, 11.85,11.85,,,-0.1225374,1.773658,1.280583,,,-0.1409695,1.827174,1.298017,,27.3501069493758,21.2107984149408,25.5365859072711
0.245, 11.96,11.96,,,-0.1180529,1.775432,1.281228,,,-0.1363554,1.829554,1.298851,,26.5997526333224,20.9642200550286,25.3218567185723
0.255, 11.76,11.76,,,-0.1141579,1.778486,1.282293,,,-0.1317833,1.831836,1.299671,,25.8612640630745,20.7762925278871,25.064572037434
0.266, 11.53,11.53,,,-0.11049,1.781548,1.283396,,,-0.1273676,1.833972,1.300499,,25.152184579027,20.6342843612578,24.803100450451
0.278, 11.16,11.16,,,-0.1066735,1.785371,1.284064,,,-0.1225511,1.836198,1.300755,,24.391412517232,20.6541807017564,24.5641377512513
0.289, 10.76,10.76,,,-0.1030005,1.789198,1.285443,,,-0.1178568,1.83832,1.301673,,23.6463140315987,20.5966022086554,24.3142330893059
0.299, 10.24,10.24,,,-0.09943493,1.79357,1.287175,,,-0.1131137,1.840391,1.3027,,22.8970030269121,20.4927782135185,24.0300955201929
0.311, 9.88,9.88,,,-0.09518772,1.797277,1.28921,,,-0.1079613,1.842568,1.304236,,22.0841541892395,20.2532229954249,23.7221325443706
0.322, 9.56,9.56,,,-0.09032106,1.800938,1.290915,,,-0.102265,1.844859,1.305449,,21.1967009048862,19.9849178043675,23.3795644160815
0.333, 9.2,9.2,,,-0.0854326,1.804661,1.291909,,,-0.09653528,1.847038,1.305901,,20.3164346868871,19.8294063541248,23.0511091657721
0.344, 8.93,8.93,,,-0.08031041,1.807902,1.292521,,,-0.09073457,1.849138,1.30615,,19.4321164592756,19.744109246596,22.7917856732233
0.355, 8.71,8.71,,,-0.07419178,1.811168,1.293056,,,-0.08404382,1.851435,1.306387,,18.4184361599312,19.6291503358745,22.5771777203789
0.366, 8.45,8.45,,,-0.06804246,1.814471,1.292925,,,-0.07730192,1.853599,1.305919,,17.4094891815498,19.6494308745032,22.3885842498119
0.377, 8.18,8.18,,,-0.06209056,1.81768,1.293869,,,-0.07073772,1.855604,1.306462,,16.4234455343655,19.5052148492862,22.1456036919448
0.388, 7.86,7.86,,,-0.05666658,1.820828,1.29529,,,-0.06462981,1.857368,1.307369,,15.5068888147687,19.2780769147581,21.8094900922417
0.399, 7.47,7.47,,,-0.05209874,1.823995,1.296252,,,-0.05931239,1.858809,1.307698,,14.7164105535527,19.1458581164843,21.4484531329508
0.411, 7.16,7.16,,,-0.04768162,1.826634,1.297129,,,-0.05424868,1.860108,1.308069,,13.9657821761665,19.0099032048385,21.080628673361
0.422, 6.82,6.82,,,-0.04324844,1.829382,1.297768,,,-0.04916917,1.861336,1.308167,,13.21758363851,18.9378703243088,20.7474879134114
0.433, 6.45,6.45,,,-0.03865137,1.832257,1.297421,,,-0.04394248,1.862507,1.307258,,12.4599850532698,19.0591608202146,20.4868376566532
0.444, 6.16,6.16,,,-0.03376955,1.834685,1.296483,,,-0.03855594,1.863626,1.305934,,11.6896148684107,19.312668406847,20.3287256119565
0.455, 6,6,,,-0.02844824,1.836556,1.29557,,,-0.03282765,1.864735,1.304809,,10.8744224221444,19.5367651997318,20.1697341804285
0.466, 5.84,5.84,,,-0.02267704,1.83836,1.294775,,,-0.02670339,1.865827,1.303815,,10.0078908604103,19.7286371610092,20.0420352597122
0.477, 5.7,5.7,,,-0.01657325,1.840038,1.294333,,,-0.02029316,1.866875,1.303166,,9.10146160352347,19.8081832494169,19.8827450074164
0.489, 5.6,5.6,,,-0.01011617,1.841506,1.295721,,,-0.01358725,1.867911,1.304375,,8.11430548930905,19.5585978988062,19.6818640268745
0.5, 5.83,5.83,,,-0.00249234,1.841433,1.29798,,,-0.005950898,1.868972,1.306919,,6.96849304971353,19.0389554136647,19.4233379588891
0.511, 5.83,5.83,,,0.00391135,1.842166,1.300005,,,0.0006505176,1.869753,1.308885,,5.98913188867247,18.647600953039,19.1623547304181
0.521, 5.62,5.62,,,0.01051182,1.843804,1.300716,,,0.007587902,1.87042,1.30926,,4.99120029756857,18.5918102619036,18.9773214958569
0.533, 5.46,5.46,,,0.01662402,1.845051,1.301701,,,0.01402793,1.870937,1.310011,,4.05955654428865,18.531829249829,18.8269207345185
0.544, 5.12,5.12,,,0.02299529,1.847088,1.302428,,,0.02081533,1.87136,1.310243,,3.08971474569499,18.6003138471836,18.7220722110346
0.555, 4.72,4.72,,,0.02858088,1.849234,1.303668,,,0.02681366,1.871643,1.310913,,2.22501559559817,18.6190422253666,18.6511355758362
0.566, 4.54,4.54,,,0.03420616,1.850286,1.304577,,,0.03274085,1.871833,1.311597,,1.37144986698207,18.6898507945217,18.6527065193015
0.578, 4.5,4.5,,,0.0407638,1.85061,1.304631,,,0.03949398,1.871935,1.311645,,0.457568073505355,18.9219218330406,18.72951882457
0.588, 4.47,4.47,,,0.04846134,1.850721,1.305072,,,0.04735009,1.871913,1.312083,,0.771770693765062,19.0874497554223,18.7658264016402
0.6, 4.59,4.59,,,0.05610899,1.849968,1.305362,,,0.05509036,1.871741,1.312572,,1.86014775406311,19.2041981756565,18.7398324099297
0.61, 4.69,4.69,,,0.06386929,1.849173,1.305742,,,0.06294795,1.871413,1.313107,,2.9828814119822,19.3363623324185,18.702879380001
0.622, 4.88,4.88,,,0.07174778,1.847785,1.305979,,,0.07090636,1.87092,1.31365,,4.12478527593394,19.5315657183708,18.6951783419261
0.633, 4.91,4.91,,,0.07892781,1.847055,1.306168,,,0.07820415,1.870328,1.313895,,5.1737708221157,19.7656806909419,18.6923113701018
0.644, 4.89,4.89,,,0.08565287,1.846429,1.305878,,,0.0850801,1.869644,1.313584,,6.16322486803506,20.0233922588915,18.6582355572808
0.655, 4.83,4.83,,,0.09243023,1.845926,1.306405,,,0.09204681,1.868832,1.313999,,7.16834053728543,20.1598782177305,18.6126542911231
0.666, 4.61,4.61,,,0.09843297,1.84612,1.306887,,,0.09825092,1.868003,1.314142,,8.06508970884043,20.3090358846745,18.5981828282219
0.677, 4.48,4.48,,,0.1040962,1.845878,1.306608,,,0.1041176,1.867125,1.313663,,8.91422734056347,20.5247998470038,18.6182926121261
0.689, 4.3,4.3,,,0.1096159,1.845809,1.3066,,,0.1098341,1.866185,1.313394,,9.7440065091701,20.7380861582805,18.6983953609356
0.7, 4.2,4.2,,,0.1155801,1.845173,1.30481,,,0.115964,1.86507,1.311504,,10.6399830155967,21.2910002014906,18.8729425478654
0.711, 4.23,4.23,,,0.1215363,1.843848,1.303295,,,0.1220614,1.86386,1.310097,,11.5366066824292,21.8432004899522,19.074100151061
0.722, 4.38,4.38,,,0.1290199,1.8415,1.302204,,,0.1296579,1.862222,1.309293,,12.6536678684005,22.4317783649211,19.2063787134884
0.733, 4.71,4.71,,,0.1363213,1.838219,1.301156,,,0.137084,1.860474,1.308785,,13.7486880345334,22.9540419350836,19.2577912534877
0.744, 5.02,5.02,,,0.1446701,1.834565,1.301526,,,0.1455393,1.858323,1.309629,,14.9924270279685,23.3496755091052,19.1826950332004
0.755, 5.17,5.17,,,0.1526084,1.831601,1.301541,,,0.153588,1.856081,1.309835,,16.1876025239825,23.7768935845173,19.0860307836617
0.767, 5.27,5.27,,,0.1598552,1.828934,1.301394,,,0.1609845,1.853857,1.309799,,17.2936150255051,24.1762888851196,19.0396777061493
0.778, 5.26,5.26,,,0.1656755,1.827005,1.299887,,,0.1670277,1.851899,1.308287,,18.2103220092595,24.5856921201248,19.1156806340237
0.789, 5.1,5.1,,,0.1705619,1.826047,1.299695,,,0.1721513,1.850168,1.307839,,18.9869179113737,24.7045578989428,19.2295876956422
0.8, 4.94,4.94,,,0.1748612,1.825222,1.299463,,,0.1767103,1.84856,1.307328,,19.6818025551737,24.6853736056454,19.3397859646447
0.811, 4.88,4.88,,,0.1791852,1.823859,1.299802,,,0.1813188,1.846885,1.307559,,20.3822230671419,24.6014066774204,19.5000802547205
0.822, 4.72,4.72,,,0.1846475,1.822489,1.298993,,,0.1869755,1.844714,1.306508,,21.2556266527634,24.8642477172939,19.7315297460422
0.834, 4.64,4.64,,,0.1905425,1.820444,1.297937,,,0.1930671,1.842261,1.305353,,22.2029619114512,25.2417232339123,19.9872247006954
0.845, 4.59,4.59,,,0.1972322,1.817779,1.296179,,,0.1999539,1.839326,1.30355,,23.287411506364,25.8041295322573,20.2718506283205
0.856, 4.63,4.63,,,0.2035127,1.814663,1.294691,,,0.2065157,1.83639,1.302168,,24.3270123728873,26.2364429286484,20.5791596135479
0.867, 4.7,4.7,,,0.2084841,1.81193,1.29383,,,0.2118315,1.833918,1.301447,,25.1715088911985,26.4133738515322,20.9545775357361
0.878, 4.78,4.78,,,0.211573,1.809964,1.293356,,,0.215361,1.832231,1.301147,,25.7334626895235,26.2852241383432,21.4830292571145
0.889, 4.9,4.9,,,0.2152624,1.807428,1.292599,,,0.2195446,1.830168,1.300621,,26.4050341907877,26.2173013240321,22.0160281768063
0.903, 5.04,5.04,,,0.2184331,1.804975,1.291833,,,0.2232455,1.82829,1.300117,,27.0028942925803,26.0988009603246,22.5533984174452
0.911, 5.19,5.19,,,0.2224485,1.80201,1.291674,,,0.2277648,1.82596,1.300182,,27.7291739000265,25.9744812756061,22.9412882647108
0.922, 5.4,5.4,,,0.2276965,1.798057,1.291947,,,0.2335533,1.822887,1.300738,,28.6615015259781,25.9220629902795,23.2547444200202
0.933, 5.5,5.5,,,0.2332079,1.794387,1.293766,,,0.2395001,1.819651,1.302617,,29.6160443415869,25.6636222996563,23.4649964198426
