経過時間(s),めり込み量(mm),Y軸めり込み量(mm),,デバイス先端,X座標,Y座標,Z座標,,仮想物体との接触位置,X座標,Y座標,Z座標,,接触点の法線と床の法線とのなす角,接触点の法線とデバイスの方向ベクトルのなす角,床の法線とデバイスの方向ベクトルのなす角
0.001, 0.53,-0.53,,,-0.1932272,1.638466,1.349688,,,-0.1915897,1.636388,1.349611,,45.0005395849294,6.96728239871684,38.2781207418041
0.01, 0.27,0.27,,,-0.1924494,1.633634,1.348523,,,-0.193289,1.634689,1.348557,,45.0005395849294,6.64865280214195,38.5489138291975
0.022, 1.19,1.19,,,-0.1906323,1.628978,1.348124,,,-0.1943657,1.633612,1.348252,,45.0005395849294,6.2669135400528,38.8806526928589
0.033, 2.02,2.02,,,-0.1887395,1.625033,1.347289,,,-0.1951219,1.632856,1.347476,,45.0005395849294,5.8839653345142,39.2320727460661
0.043, 2.92,2.92,,,-0.1863615,1.621085,1.345581,,,-0.1956484,1.632329,1.345817,,45.0005395849294,5.52410615593549,39.5697470439511
0.055, 3.68,3.68,,,-0.1850477,1.616993,1.344143,,,-0.1968431,1.631135,1.344414,,45.0005395849294,5.23603610551731,39.8457925466701
0.065, 4.33,4.33,,,-0.1841117,1.613379,1.343114,,,-0.1980376,1.62994,1.343415,,45.0005395849294,5.00519407412804,40.0714961415124
0.077, 4.98,4.98,,,-0.1838027,1.609112,1.342481,,,-0.1998879,1.62809,1.34279,,45.0005395849294,4.76970111093024,40.2941124909358
0.088, 5.6,5.6,,,-0.1832317,1.60524,1.343106,,,-0.2014136,1.626564,1.343369,,45.0005395849294,4.57962378180734,40.4593518378331
0.099, 6.2,6.2,,,-0.183019,1.601223,1.343034,,,-0.2031917,1.624786,1.343238,,45.0005395849294,4.44884572652151,40.5717357673091
0.11, 6.81,6.81,,,-0.1826243,1.597348,1.342402,,,-0.2048262,1.623152,1.342567,,45.0005395849294,4.29919713974453,40.7128782074852
0.122, 7.5,7.5,,,-0.181479,1.593589,1.341284,,,-0.2060252,1.621953,1.341434,,45.0005395849294,4.1336542763244,40.8753479127512
0.132, 8.21,8.21,,,-0.1801851,1.589868,1.341129,,,-0.2071521,1.620826,1.341231,,45.0005395849294,3.94392059108455,41.0604152982573
0.144, 8.84,8.84,,,-0.178894,1.586714,1.342094,,,-0.2080324,1.619945,1.342094,,45.0005395849294,3.75441955915684,41.2461657026614
0.155, 9.55,9.55,,,-0.1769754,1.583597,1.342825,,,-0.2085785,1.619399,1.342728,,45.0005395849294,3.56622928318305,41.4356009940202
0.166, 10.17,10.17,,,-0.1744701,1.581721,1.343283,,,-0.2082473,1.619731,1.343116,,45.0005395849294,3.37898669593023,41.6258456627731
0.177, 10.6,10.6,,,-0.1728094,1.580356,1.344282,,,-0.208113,1.619865,1.344055,,45.0005395849294,3.22634307128554,41.7825097074061
0.188, 10.92,10.92,,,-0.1714484,1.579458,1.344702,,,-0.2078946,1.620083,1.344416,,45.0005395849294,3.11859897456096,41.8953375991658
0.199, 11.21,11.21,,,-0.1698689,1.57899,1.345654,,,-0.2073192,1.620659,1.345313,,45.0005395849294,3.07179531801929,41.9475475637285
0.211, 11.18,11.18,,,-0.1695864,1.579432,1.346381,,,-0.2069245,1.621053,1.346019,,45.0005395849294,3.12687417539698,41.8947228821576
0.223, 10.57,10.57,,,-0.1714092,1.581953,1.345208,,,-0.2065765,1.621401,1.344946,,45.0005395849294,3.29574334085034,41.7159358554186
0.233, 10.54,10.54,,,-0.171152,1.582423,1.34551,,,-0.2061854,1.621792,1.345289,,45.0005395849294,3.34351432290629,41.6646206456122
0.244, 10.48,10.48,,,-0.1700953,1.583944,1.344871,,,-0.2048354,1.623142,1.344729,,45.0005395849294,3.45354717326937,41.5496822254577
0.255, 10.21,10.21,,,-0.1693737,1.586541,1.344747,,,-0.2031309,1.624847,1.344707,,45.0005395849294,3.61178301514139,41.3888141995075
0.266, 9.87,9.87,,,-0.1685183,1.589813,1.344032,,,-0.2010598,1.626918,1.344098,,45.0005395849294,3.74914836081156,41.252763665216
0.277, 9.67,9.67,,,-0.1670711,1.592713,1.343759,,,-0.1989036,1.629074,1.34387,,45.0005395849294,3.80204817446124,41.201841191276
0.288, 9.48,9.48,,,-0.1648479,1.596231,1.344206,,,-0.196059,1.631919,1.344285,,45.0005395849294,3.82975867803969,41.1727582465994
0.3, 9.19,9.19,,,-0.1629085,1.600205,1.345514,,,-0.1931273,1.634851,1.345528,,45.0005395849294,3.90429781103827,41.0964752809769
0.31, 8.98,8.98,,,-0.1606346,1.604017,1.346621,,,-0.1900701,1.637908,1.346531,,45.0005395849294,4.02569588242057,40.9758438983076
0.322, 8.94,8.94,,,-0.1569501,1.607968,1.346587,,,-0.1862128,1.641765,1.346448,,45.0005395849294,4.11637261754471,40.8871812151589
0.333, 8.85,8.85,,,-0.1533477,1.612221,1.345888,,,-0.1823039,1.645674,1.34576,,45.0005395849294,4.12412018628202,40.8789542525326
0.345, 8.86,8.86,,,-0.1488169,1.616647,1.344896,,,-0.1778438,1.650134,1.344804,,45.0005395849294,4.08279028587756,40.9188801222149
0.355, 8.76,8.76,,,-0.1435809,1.622636,1.344245,,,-0.1722379,1.65574,1.344163,,45.0005395849294,4.11936893607285,40.8820722338019
0.366, 8.61,8.61,,,-0.1395194,1.627773,1.343428,,,-0.1676136,1.660364,1.343376,,45.0005395849294,4.23882211114311,40.7619018888888
0.378, 8.5,8.5,,,-0.1353709,1.632677,1.343198,,,-0.1630123,1.664966,1.343187,,45.0005395849294,4.43416082021463,40.5664013897158
0.388, 8.45,8.45,,,-0.1302965,1.6381,1.342592,,,-0.1576552,1.670323,1.34267,,45.0005395849294,4.66845636590688,40.3341817945866
0.399, 8.43,8.43,,,-0.1248098,1.643747,1.342243,,,-0.1520082,1.67597,1.342453,,45.0005395849294,4.84084051736405,40.1708514855092
0.411, 8.62,8.62,,,-0.1182521,1.648983,1.342008,,,-0.1460033,1.681974,1.34234,,45.0005395849294,4.95028874623913,40.0749590473252
0.421, 8.73,8.73,,,-0.1110667,1.655431,1.341967,,,-0.1391016,1.688876,1.342398,,45.0005395849294,5.06058904118945,39.9788753638499
0.433, 8.78,8.78,,,-0.1046263,1.661525,1.342264,,,-0.1327035,1.695274,1.342759,,45.0005395849294,5.28108632448179,39.7677508073853
0.443, 8.87,8.87,,,-0.09822033,1.667345,1.34322,,,-0.1263948,1.701583,1.343783,,45.0005395849294,5.59604597514039,39.4623491524305
0.468, 9.04,9.04,,,-0.09114165,1.673237,1.343867,,,-0.1196871,1.708291,1.344541,,45.0005395849294,5.90461683778187,39.171656309444
0.478, 9.4,9.4,,,-0.07665452,1.685262,1.343919,,,-0.1059983,1.72198,1.344919,,45.0005395849294,6.48373831610798,38.6566839660175
0.489, 9.71,9.71,,,-0.06251775,1.697331,1.345618,,,-0.09248132,1.735497,1.34683,,45.0005395849294,7.01168033463373,38.1685371898098
0.5, 9.96,9.96,,,-0.05499914,1.703119,1.347202,,,-0.08552602,1.742452,1.348461,,45.0005395849294,7.32782630374078,37.850386987124
0.511, 10.18,10.18,,,-0.04716445,1.709462,1.348386,,,-0.07811558,1.749862,1.349737,,45.0005395849294,7.69421642364475,37.4944419337176
0.522, 10.53,10.53,,,-0.03855567,1.715729,1.349495,,,-0.07025051,1.757727,1.351058,,45.0005395849294,8.13783805166583,37.0874514629696
0.533, 10.67,10.67,,,-0.03070937,1.722706,1.349432,,,-0.06249332,1.765485,1.351333,,45.0005395849294,8.63110320074039,36.6768170864008
0.543, 10.89,10.89,,,-0.02284646,1.729129,1.349257,,,-0.05495492,1.773023,1.351524,,45.0005395849294,9.129463670794,36.2715273327088
0.555, 11.12,11.12,,,-0.01480719,1.735616,1.348756,,,-0.04729407,1.780684,1.351377,,45.0005395849294,9.59871985183043,35.8948014293309
0.565, 11.21,11.21,,,-0.01415445,1.73566,1.349124,,,-0.04690275,1.781075,1.351801,,45.0005395849294,9.60027628114424,35.9064708072031
0.577, 11.39,11.39,,,-0.006525647,1.742141,1.350094,,,-0.03948684,1.788491,1.35301,,45.0005395849294,10.0170834410037,35.5464037347473
0.588, 11.63,11.63,,,0.001203604,1.748346,1.352112,,,-0.03206104,1.795917,1.355163,,45.0005395849294,10.4732606639171,35.0998289037661
0.599, 11.73,11.73,,,0.007916763,1.754447,1.354157,,,-0.02522376,1.802754,1.357315,,45.0005395849294,10.9852832194779,34.5972192023933
0.61, 11.96,11.96,,,0.01478376,1.759942,1.354704,,,-0.01848717,1.809491,1.358121,,45.0005395849294,11.5864312034907,34.0460229517117
0.621, 12.39,12.39,,,0.02221011,1.764532,1.353217,,,-0.01182163,1.816156,1.357062,,45.0005395849294,12.1324681001716,33.589708271245
0.632, 12.8,12.8,,,0.02979832,1.769465,1.35113,,,-0.00498718,1.822991,1.35548,,45.0005395849294,12.5897936486073,33.2547114074401
0.643, 13.4,13.4,,,0.03756458,1.773236,1.349229,,,0.001501948,1.82948,1.354131,,45.0005395849294,13.0165831296609,32.9403792803941
0.654, 13.95,13.95,,,0.04485993,1.776931,1.346508,,,0.007758826,1.835737,1.351998,,45.0005395849294,13.5150477600964,32.566286414868
0.665, 14.45,14.45,,,0.05097631,1.77988,1.344527,,,0.01310065,1.841079,1.350627,,45.0005395849294,14.0902017523988,32.1230720368648
0.676, 14.97,14.97,,,0.05646911,1.782089,1.343241,,,0.01788405,1.845862,1.35002,,45.0005395849294,14.7509593569605,31.6070034481071
0.687, 15.45,15.45,,,0.06184572,1.78446,1.341454,,,0.02262464,1.850603,1.348888,,45.0005395849294,15.3392452413504,31.1600392963539
0.699, 16.07,16.07,,,0.06688595,1.785585,1.341137,,,0.02669586,1.854674,1.349138,,45.0005395849294,15.8544071225211,30.7231496733462
0.709, 16.8,16.8,,,0.07204898,1.786025,1.3423,,,0.03062262,1.8586,1.350781,,45.0005395849294,16.3194166335592,30.2778555027987
0.72, 17.55,17.55,,,0.07744618,1.786595,1.342541,,,0.03474776,1.862726,1.351593,,45.0005395849294,16.765723379623,29.8794676550709
0.732, 18.32,18.32,,,0.08244146,1.786653,1.343217,,,0.03843699,1.866415,1.352897,,45.0005395849294,17.1897807850847,29.5163235824797
0.743, 19.07,19.07,,,0.08723451,1.786722,1.343101,,,0.04206905,1.870047,1.353469,,45.0005395849294,17.6485987298125,29.1368656035098
0.754, 18.88,18.88,,,0.09077014,1.787248,1.343307,,,0.0468076,1.870138,1.353808,,45.0005259245515,73.0493629141229,28.6624338467738
0.766, 17.03,17.03,,,0.09297241,1.787622,1.344476,,,0.05414414,1.862801,1.354082,,45.0005259245515,72.4317567359893,28.0759904058612
0.775, 15.74,15.74,,,0.09404385,1.787877,1.34489,,,0.05911544,1.85783,1.353928,,45.0005259245515,71.6600478340902,27.3464647511022
0.787, 15.21,15.21,,,0.09350255,1.788147,1.345951,,,0.06076057,1.856185,1.354835,,45.0005259245515,70.8356371940218,26.5687025942196
0.798, 14.53,14.53,,,0.09203926,1.789564,1.347857,,,0.06184509,1.855101,1.35649,,45.0005259245515,69.8863297182661,25.6727371868501
0.809, 13.68,13.68,,,0.09042244,1.791733,1.349522,,,0.06306551,1.85388,1.357836,,45.0005259245515,68.9239014494799,24.7797907230097
0.821, 12.7,12.7,,,0.08846118,1.794618,1.35132,,,0.06420496,1.852741,1.359282,,45.0005259245515,67.8380516658262,23.791974641785
0.831, 11.71,11.71,,,0.08581709,1.798327,1.351247,,,0.06457916,1.852366,1.358909,,45.0005259245515,66.6697888219404,22.7614937850972
0.843, 10.73,10.73,,,0.08312192,1.802263,1.350741,,,0.06480092,1.852145,1.358093,,45.0005259245515,65.4178015215384,21.6859183132165
0.853, 10,10,,,0.07876758,1.807145,1.348695,,,0.06295025,1.853995,1.355971,,45.0005259245515,63.9573022119567,20.4915487795021
0.865, 9.24,9.24,,,0.07438417,1.812296,1.347525,,,0.06099437,1.855951,1.35463,,45.0005259245515,62.412327125071,19.2661462821574
0.876, 9.15,9.15,,,0.06746788,1.817701,1.347194,,,0.05564274,1.861303,1.35455,,45.0005259245515,60.5999637999984,17.8466656724947
0.887, 9.29,9.29,,,0.06071777,1.822118,1.348864,,,0.05024192,1.866704,1.35652,,45.0005259245515,58.706826660049,16.375000711478
0.898, 9.55,9.55,,,0.0542656,1.825662,1.352076,,,0.04510969,1.871836,1.360056,,45.0005259245515,56.7532662532885,14.9021797409765
0.909, 8.75,8.75,,,0.05054269,1.828892,1.353666,,,0.0434294,1.871407,1.361086,,45.0005395849294,36.6497866135126,13.7727934789909
0.921, 8.65,8.65,,,0.04997974,1.829754,1.35343,,,0.04395261,1.87193,1.3609,,45.0005395849294,38.0001286352258,13.0155065211229
0.933, 8.27,8.27,,,0.05097723,1.830515,1.353504,,,0.04603121,1.870914,1.360712,,45.0005259245515,52.6630349034041,12.4159533862369
0.943, 7.67,7.67,,,0.05322091,1.830042,1.353274,,,0.04932971,1.867616,1.360005,,45.0005259245515,51.6303820466206,11.9068473213706
0.954, 7.05,7.05,,,0.05506798,1.830229,1.35392,,,0.05211963,1.864826,1.36013,,45.0005259245515,50.6211806436998,11.464305716982
0.965, 6.35,6.35,,,0.05825065,1.829639,1.355313,,,0.0561085,1.860837,1.360867,,45.0005259245515,49.6929511311362,11.0369390849596
0.976, 5.8,5.8,,,0.06098548,1.828902,1.357973,,,0.05948733,1.857458,1.362929,,45.0005259245515,48.7563751276392,10.5160287459887
0.987, 5.26,5.26,,,0.06317213,1.828754,1.363012,,,0.06226912,1.854677,1.367297,,45.0005259245515,47.7054720059013,9.83259320646637
0.999, 4.68,4.68,,,0.06448328,1.829723,1.367553,,,0.06413785,1.852808,1.371212,,45.0005259245515,46.5386332564178,9.29362640915336
1.01, 4.14,4.14,,,0.06506316,1.83131,1.37082,,,0.06520304,1.851743,1.373985,,45.0005259245515,45.2884320504341,9.0647510453035
1.021, 3.44,3.44,,,0.06632053,1.833166,1.371556,,,0.06678069,1.850165,1.374204,,45.0005259245515,44.1650947745639,9.23169452435133
1.032, 2.38,2.38,,,0.06985307,1.834859,1.369362,,,0.07035923,1.846586,1.37124,,45.0005259245515,43.3070966801866,9.65687378835293
1.042, 1.41,1.41,,,0.07477157,1.834855,1.368284,,,0.07515821,1.841787,1.369415,,45.0005259245515,42.6346133486937,10.020420842094
1.054, 0.21,0.21,,,0.0802052,1.835647,1.366413,,,0.08027248,1.836673,1.366582,,45.0005259245515,42.1115028350976,10.2998242364702
1.065, 0.94,-0.94,,,0.08525516,1.836651,1.367199,,,0.08489653,1.832049,1.366446,,45.0005259245515,41.4100492570462,10.4963817073879
1.077, 1.86,-1.86,,,0.08885579,1.838093,1.36955,,,0.0879944,1.828951,1.368097,,45.0005259245515,40.4601782906997,10.6847241685099
1.087, 2.72,-2.72,,,0.0927157,1.839068,1.372953,,,0.09122533,1.82572,1.370916,,45.0005259245515,39.4324090190369,10.9097917020034
1.098, 3.56,-3.56,,,0.09744771,1.839143,1.374087,,,0.09526029,1.821685,1.371473,,45.0005259245515,38.6516535318338,11.2409892731882
1.11, 4.64,-4.64,,,0.1049425,1.837757,1.371412,,,0.1019482,1.814997,1.367952,,45.0005259245515,38.3308498007292,11.5568590465284
1.12, 5.82,-5.82,,,0.1141128,1.835155,1.367002,,,0.1103123,1.806633,1.36256,,45.0005259245515,38.2785647040878,11.7744816740338
1.132, 6.6,-6.6,,,0.1216979,1.831969,1.363685,,,0.1173045,1.799641,1.358612,,45.0005259245515,38.1460726982548,11.916775001053
1.142, 7.39,-7.39,,,0.1293256,1.828858,1.362422,,,0.1242586,1.792687,1.356819,,45.0005259245515,37.8951076494701,11.9831448011447
1.153, 7.93,-7.93,,,0.1370058,1.824362,1.36356,,,0.1314092,1.785536,1.357721,,45.0005259245515,37.6243487130216,11.9491313137982
1.165, 8.41,-8.41,,,0.1449376,1.819238,1.363423,,,0.1388639,1.778082,1.357344,,45.0005259245515,37.4081322506725,11.972399206332
1.176, 8.83,-8.83,,,0.1539686,1.812594,1.362106,,,0.147569,1.769377,1.355646,,45.0005259245515,37.39927691066,12.0607314790888
1.187, 9.36,-9.36,,,0.1635251,1.805906,1.358525,,,0.1567899,1.760156,1.351416,,45.0005259245515,37.5108787834978,12.2643863701302
1.198, 9.56,-9.56,,,0.1724062,1.797997,1.354293,,,0.165639,1.751307,1.346547,,45.0005259245515,37.75516390746,12.612663682633
1.209, 9.8,-9.8,,,0.1808516,1.79079,1.350497,,,0.1739747,1.742971,1.342186,,45.0005259245515,37.9105848576987,12.9055225492997
1.22, 9.66,-9.66,,,0.1877007,1.783171,1.349246,,,0.1808586,1.736087,1.340914,,45.0005259245515,37.8676366293928,13.0915470150367
1.232, 9.54,-9.54,,,0.1947432,1.775583,1.348544,,,0.1878643,1.729081,1.340304,,45.0005259245515,37.7292296799032,13.19016384485
1.242, 9.01,-9.01,,,0.200257,1.76717,1.348984,,,0.1936857,1.72326,1.341268,,45.0005259245515,37.6176243919709,13.1882778589179
1.254, 8.52,-8.52,,,0.2067224,1.758,1.348718,,,0.2004742,1.716471,1.341472,,45.0005259245515,37.5588950120268,13.1644114710747
1.265, 7.89,-7.89,,,0.2130461,1.748084,1.347827,,,0.207283,1.709663,1.341113,,45.0005259245515,37.5870797868526,13.1596875416215
1.276, 7.27,-7.27,,,0.2202896,1.737303,1.345628,,,0.2150791,1.701867,1.33932,,45.0005259245515,37.7878122107842,13.1952215997896
1.287, 6.53,-6.53,,,0.226844,1.726456,1.341594,,,0.222306,1.69464,1.335739,,45.0005259245515,38.1018574698931,13.3051517838746
経過時間(s),めり込み量(mm),Y軸めり込み量(mm),,デバイス先端,X座標,Y座標,Z座標,,仮想物体との接触位置,X座標,Y座標,Z座標,,接触点の法線と床の法線とのなす角,接触点の法線とデバイスの方向ベクトルのなす角,床の法線とデバイスの方向ベクトルのなす角
0, 0.94,-0.94,,,-0.1922727,1.64214,1.342073,,,-0.1896668,1.638311,1.341383,,45.0005395849294,13.6633465307763,35.2065779273336
0.011, 0.07,0.07,,,-0.1911108,1.636377,1.344257,,,-0.19131,1.636668,1.344308,,45.0005395849294,13.3551726728692,35.3949101431721
0.022, 1.12,1.12,,,-0.1895219,1.630734,1.346681,,,-0.1926862,1.635292,1.347463,,45.0005395849294,12.9745159957334,35.6352064367701
0.033, 2.27,2.27,,,-0.187114,1.625214,1.348226,,,-0.1935745,1.634403,1.349765,,45.0005395849294,12.5736769639355,35.914687524546
0.044, 3.12,3.12,,,-0.1854314,1.620955,1.348684,,,-0.1944075,1.63357,1.350755,,45.0005395849294,12.2081346412386,36.1953707255824
0.055, 3.75,3.75,,,-0.1843402,1.617677,1.347918,,,-0.1951709,1.632807,1.350398,,45.0005395849294,12.0628718895604,36.3486333361034
0.066, 4.03,4.03,,,-0.1852641,1.61486,1.34682,,,-0.1968986,1.631079,1.349517,,45.0005395849294,12.0847011735403,36.4239088488513
0.077, 4.37,4.37,,,-0.1857554,1.611994,1.345666,,,-0.1983902,1.629588,1.348644,,45.0005395849294,12.1468567470314,36.4799403041483
0.088, 4.64,4.64,,,-0.1861381,1.609746,1.344768,,,-0.1995654,1.628412,1.347978,,45.0005395849294,12.1899697536465,36.5452983824974
0.099, 5.08,5.08,,,-0.1858642,1.607017,1.345198,,,-0.2005892,1.627389,1.348717,,45.0005395849294,12.1037394715483,36.6771483505663
0.11, 5.53,5.53,,,-0.1847717,1.604933,1.345318,,,-0.2008837,1.627094,1.349142,,45.0005395849294,11.9700282769824,36.8272383383061
0.121, 5.8,5.8,,,-0.1845988,1.60327,1.346718,,,-0.201522,1.626456,1.350668,,45.0005395849294,11.8177492136745,36.9089752098291
0.133, 6.13,6.13,,,-0.1840488,1.601483,1.348481,,,-0.2019836,1.625994,1.352578,,45.0005395849294,11.6662300088906,36.9458377397539
0.144, 6.47,6.47,,,-0.1833926,1.599756,1.350088,,,-0.2023684,1.625609,1.354339,,45.0005395849294,11.5165079975821,37.0045739498869
0.156, 6.9,6.9,,,-0.1820385,1.598102,1.350767,,,-0.2023311,1.625647,1.355249,,45.0005395849294,11.3835780058808,37.0878988403477
0.167, 7.24,7.24,,,-0.1805748,1.59718,1.350778,,,-0.2019355,1.626042,1.355475,,45.0005395849294,11.2828011288026,37.2085916947179
0.177, 7.56,7.56,,,-0.1793123,1.596221,1.349921,,,-0.2016645,1.626313,1.354831,,45.0005395849294,11.214610229574,37.3072127933993
0.188, 7.63,7.63,,,-0.1788305,1.596199,1.349725,,,-0.2013896,1.626588,1.354691,,45.0005395849294,11.2351716597245,37.2936036418568
0.2, 7.39,7.39,,,-0.1795934,1.597176,1.349514,,,-0.2013611,1.626617,1.354342,,45.0005395849294,11.3410395889137,37.1926978449615
0.21, 7.26,7.26,,,-0.1800185,1.597653,1.349378,,,-0.2013751,1.626603,1.354137,,45.0005395849294,11.4033727473183,37.1376260312162
0.222, 7.39,7.39,,,-0.1792596,1.597523,1.349733,,,-0.2009639,1.627014,1.354601,,45.0005395849294,11.4762756231694,37.0808705758874
0.233, 7.39,7.39,,,-0.1782659,1.598503,1.349927,,,-0.1999217,1.628056,1.354846,,45.0005395849294,11.6138766103593,36.9786158166686
0.244, 7.35,7.35,,,-0.1769401,1.600169,1.350459,,,-0.1984183,1.62956,1.355369,,45.0005395849294,11.6916033071775,36.9127727949019
0.255, 7.34,7.34,,,-0.1752143,1.601937,1.35128,,,-0.1966663,1.631312,1.356175,,45.0005395849294,11.693861538409,36.8918041147335
0.266, 7.33,7.33,,,-0.1729065,1.604292,1.351602,,,-0.1943279,1.63365,1.356469,,45.0005395849294,11.6879286655063,36.8622635473953
0.277, 7.4,7.4,,,-0.1700913,1.606617,1.352494,,,-0.1917021,1.636276,1.357393,,45.0005395849294,11.7017948029092,36.8205754889562
0.288, 7.39,7.39,,,-0.1665924,1.61021,1.353211,,,-0.1881516,1.639826,1.358105,,45.0005395849294,11.7249585350611,36.7964136954396
0.3, 7.46,7.46,,,-0.1630901,1.613235,1.353591,,,-0.1848405,1.643137,1.358561,,45.0005395849294,11.7710341361462,36.7840681288583
0.311, 7.53,7.53,,,-0.158356,1.617498,1.35387,,,-0.180296,1.647682,1.358926,,45.0005395849294,11.8253008413654,36.77736088328
0.322, 7.61,7.61,,,-0.1548456,1.620499,1.354472,,,-0.1769895,1.650988,1.359588,,45.0005395849294,11.85160219158,36.757956316388
0.333, 7.57,7.57,,,-0.1498621,1.62576,1.356158,,,-0.1718512,1.656127,1.361218,,45.0005395849294,11.88383470715,36.6711309540749
0.344, 7.69,7.69,,,-0.1456585,1.629144,1.357759,,,-0.1679419,1.660036,1.362885,,45.0005395849294,11.9505161346139,36.5650786097833
0.355, 7.59,7.59,,,-0.1417203,1.633749,1.358633,,,-0.1636603,1.664318,1.363753,,45.0005395849294,12.1072732405718,36.4483540952106
0.366, 7.67,7.67,,,-0.1371186,1.637849,1.358836,,,-0.1592107,1.668767,1.36413,,45.0005395849294,12.3163991129861,36.3658590727108
0.377, 7.69,7.69,,,-0.1322035,1.642679,1.358947,,,-0.1542957,1.673682,1.364376,,45.0005395849294,12.4916976207037,36.3311309768422
