経過時間(s),めり込み量(mm),Y軸めり込み量(mm),,デバイス先端,X座標,Y座標,Z座標,,仮想物体との接触位置,X座標,Y座標,Z座標,,接触点の法線と床の法線とのなす角,接触点の法線とデバイスの方向ベクトルのなす角,床の法線とデバイスの方向ベクトルのなす角
0, 0.39,0.39,,,-0.1267602,1.565546,0.98614,,,-0.1265407,1.567429,0.9856678,,45.8734855478893,42.7105274841113,15.231152378101
0.011, 1.58,1.58,,,-0.1252028,1.56062,0.9864852,,,-0.1243775,1.568221,0.9845852,,45.8734855478893,42.3488314115838,15.0153149912403
0.023, 2.59,2.59,,,-0.1240435,1.555984,0.9864717,,,-0.1227712,1.56849,0.9833449,,45.8734855478893,42.0189571895138,14.8743740416391
0.034, 3.62,3.62,,,-0.122393,1.551991,0.9869883,,,-0.1207251,1.569465,0.9826282,,45.8734855478893,41.7298011390479,14.7238691199188
0.044, 4.41,4.41,,,-0.1212384,1.548766,0.987381,,,-0.1193057,1.570102,0.9820769,,45.8734855478893,41.5213266959075,14.5859402836577
0.055, 5.1,5.1,,,-0.1206701,1.545856,0.9879616,,,-0.1185184,1.570504,0.9818376,,45.8734855478893,41.3675142551736,14.5182394504885
0.066, 5.4,5.4,,,-0.1202771,1.544484,0.987963,,,-0.1180276,1.570596,0.9814727,,45.8734855478893,41.3097069507418,14.5023473082794
0.078, 5.6,5.6,,,-0.1209075,1.543149,0.9882776,,,-0.1185748,1.570256,0.9815564,,45.8734855478893,41.3219739701498,14.4701002785579
0.088, 5.65,5.65,,,-0.121549,1.542579,0.9883839,,,-0.1191568,1.56989,0.9816397,,45.8734855478893,41.4236310878328,14.4468332397977
0.1, 5.44,5.44,,,-0.1227495,1.54273,0.9881954,,,-0.1204071,1.569024,0.9817088,,45.8734855478893,41.5016933176846,14.4621431083962
0.111, 5.39,5.39,,,-0.1228653,1.543447,0.9889553,,,-0.1205361,1.569516,0.982509,,45.8734855478893,41.49867778925,14.4958808268627
0.122, 5.94,5.94,,,-0.1217989,1.542048,0.9901379,,,-0.1193164,1.570765,0.9829923,,45.8734855478893,41.3162434415956,14.5216989412069
0.133, 6.67,6.67,,,-0.1203909,1.541114,0.9930553,,,-0.1177766,1.573334,0.9849546,,45.8734855478893,40.9905800310318,14.5611432825661
0.144, 7.26,7.26,,,-0.1194774,1.540161,0.995445,,,-0.116769,1.575265,0.9865789,,45.8734855478893,40.7677553608446,14.5544599426492
0.156, 7.52,7.52,,,-0.1191094,1.539748,0.996552,,,-0.1164031,1.576119,0.9873775,,45.8734855478893,40.6448256195835,14.4950629117323
0.167, 7.52,7.52,,,-0.1198895,1.540255,0.9979813,,,-0.1171766,1.576619,0.9888327,,45.8734855478893,40.6721532056923,14.464357797173
0.177, 7.34,7.34,,,-0.1211594,1.540946,0.9987996,,,-0.1184538,1.576458,0.9898905,,45.8734855478893,40.7680456438762,14.4526371928834
0.189, 7.16,7.16,,,-0.1219471,1.542202,0.9999444,,,-0.1192957,1.57684,0.9912529,,45.8734855478893,40.7835945690891,14.4609802687224
0.199, 7.25,7.25,,,-0.1218395,1.542892,1.001455,,,-0.1191668,1.577944,0.9926292,,45.8734855478893,40.7453489258959,14.5008600346291
0.211, 7.49,7.49,,,-0.1219547,1.544246,1.005277,,,-0.1192427,1.580426,0.9960895,,45.8734855478893,40.6244989771792,14.5907128782075
0.222, 7.81,7.81,,,-0.1213246,1.546237,1.009886,,,-0.1185598,1.583949,1.000209,,45.8734855478893,40.4729097629583,14.7015480623323
0.233, 8.03,8.03,,,-0.1207099,1.548167,1.013719,,,-0.1179236,1.586968,1.003688,,45.8734855478893,40.3480675687829,14.7790058204594
0.244, 8.21,8.21,,,-0.1209081,1.550032,1.017822,,,-0.1181068,1.589651,1.00753,,45.8734855478893,40.2606104139891,14.8276862848667
0.256, 8.61,8.61,,,-0.1202736,1.551191,1.021892,,,-0.1174075,1.592745,1.011049,,45.8734855478893,40.1457881070473,14.8631554562395
0.266, 8.84,8.84,,,-0.120117,1.552887,1.025898,,,-0.1172618,1.595551,1.014728,,45.8734855478893,40.0238863092277,14.8796947588545
0.278, 8.99,8.99,,,-0.1205948,1.554662,1.030065,,,-0.1177779,1.598046,1.018646,,45.8734855478893,39.8907112844967,14.9246322797008
0.289, 9.12,9.12,,,-0.1208258,1.557166,1.034808,,,-0.1180166,1.60118,1.023157,,45.8734855478893,39.7963214878884,14.9894558957622
0.301, 9.21,9.21,,,-0.1214112,1.559101,1.038734,,,-0.1185856,1.603527,1.026925,,45.8734855478893,39.7558970144106,15.0440103226923
0.311, 9.18,9.18,,,-0.1225989,1.561554,1.043061,,,-0.1197946,1.605826,1.03127,,45.8734855478893,39.7295905415543,15.0670314746492
0.322, 9.28,9.28,,,-0.1231722,1.563916,1.047695,,,-0.1204171,1.608647,1.035738,,45.8734855478893,39.6188868385673,15.0966676646332
0.333, 9.68,9.68,,,-0.1229634,1.565681,1.053108,,,-0.1201869,1.612361,1.04057,,45.8734855478893,39.4831334174964,15.1374985343553
0.344, 9.96,9.96,,,-0.1230695,1.568024,1.058686,,,-0.1203543,1.616012,1.045715,,45.8734855478893,39.2981035980297,15.1929801594394
0.355, 10.34,10.34,,,-0.1232149,1.569836,1.064402,,,-0.1205381,1.619631,1.050833,,45.8734855478893,39.10318366492,15.2773500688142
0.366, 10.52,10.52,,,-0.1237753,1.572325,1.069928,,,-0.1211467,1.622989,1.05602,,45.8734855478893,38.9590632623487,15.363999553761
0.378, 10.79,10.79,,,-0.1248099,1.574159,1.075576,,,-0.1221462,1.626114,1.061279,,45.8734855478893,38.9118495810248,15.3926265833232
0.389, 10.84,10.84,,,-0.1262483,1.576373,1.08037,,,-0.1235485,1.628611,1.066086,,45.8734855478893,38.9780511877129,15.3060710134748
0.4, 10.98,10.98,,,-0.1280342,1.577893,1.085181,,,-0.1253135,1.630785,1.070814,,45.8734855478893,39.0150605667008,15.2083361318135
0.411, 11.4,11.4,,,-0.1286341,1.579522,1.091316,,,-0.1259005,1.634449,1.076396,,45.8734855478893,38.9352702990371,15.1910642914305
0.422, 11.85,11.85,,,-0.1294678,1.580587,1.097249,,,-0.1267816,1.637673,1.081673,,45.8734855478893,38.7719399899596,15.229813661061
0.433, 12.23,12.23,,,-0.1301136,1.582337,1.103492,,,-0.1275347,1.64124,1.087288,,45.8734855478893,38.5546989992635,15.3188724951705
0.444, 12.52,12.52,,,-0.1308443,1.584203,1.109312,,,-0.128387,1.644482,1.092562,,45.8734855478893,38.3358051028342,15.4400058967298
0.455, 12.77,12.77,,,-0.1316571,1.586733,1.115789,,,-0.1293199,1.648184,1.098541,,45.8734855478893,38.1301071315142,15.5667485909889
0.466, 12.62,12.62,,,-0.1335271,1.590204,1.121444,,,-0.1313096,1.65086,1.104179,,45.8734855478893,37.9542980671704,15.7650955714193
0.478, 12.44,12.44,,,-0.1359186,1.593693,1.127345,,,-0.1337487,1.653443,1.11014,,45.8734855478893,37.8565307421114,15.9363557299025
0.488, 12,12,,,-0.1385451,1.598273,1.132774,,,-0.1364284,1.655844,1.116093,,45.8734855478893,37.8315151749724,16.0333205077562
0.5, 11.43,11.43,,,-0.1413812,1.602828,1.13738,,,-0.139313,1.657641,1.121428,,45.8734855478893,37.8446871944202,16.1071087468538
0.511, 10.91,10.91,,,-0.1443293,1.607404,1.142557,,,-0.1422877,1.659741,1.127265,,45.8734855478893,37.8760821580665,16.1771130612565
0.522, 10.51,10.51,,,-0.1474233,1.611243,1.147799,,,-0.1454579,1.661629,1.133009,,45.8734855478893,37.8414599301272,16.2473120360452
0.533, 10.12,10.12,,,-0.1498123,1.615926,1.153625,,,-0.1479284,1.664399,1.139256,,45.8734855478893,37.7605768322267,16.3969597690485
0.544, 9.82,9.82,,,-0.1524812,1.620025,1.159743,,,-0.1507069,1.667033,1.145625,,45.8734855478893,37.6073005613277,16.5930271739069
0.555, 9.75,9.75,,,-0.1541466,1.623999,1.166479,,,-0.1524789,1.670637,1.15231,,45.8734855478893,37.4239543834445,16.7606912378921
0.566, 10.02,10.02,,,-0.1554115,1.627253,1.174472,,,-0.1538421,1.675112,1.159774,,45.8734855478893,37.1979809961375,16.914727367315
0.578, 10.16,10.16,,,-0.1568265,1.63039,1.181484,,,-0.1553658,1.678903,1.166467,,45.8734855478893,37.0075382519042,17.0271642307557
0.588, 10.28,10.28,,,-0.1582717,1.633355,1.1881,,,-0.1569248,1.682435,1.172841,,45.8734855478893,36.8449934145595,17.0846949125337
0.6, 10.15,10.15,,,-0.1600845,1.63701,1.194014,,,-0.1588412,1.685462,1.178884,,45.8734855478893,36.7250962772055,17.1476111983225
0.611, 10.09,10.09,,,-0.1618461,1.640893,1.200632,,,-0.1606232,1.689023,1.18552,,45.8734855478893,36.6707040672637,17.2354935323802
0.622, 9.81,9.81,,,-0.1637404,1.646242,1.20767,,,-0.1625356,1.693009,1.192868,,45.8734855478893,36.6257375181142,17.3682126419968
0.633, 9.62,9.62,,,-0.1657356,1.651021,1.21472,,,-0.164524,1.696855,1.200099,,45.8734855478893,36.5976927621626,17.5003102044162
0.644, 9.48,9.48,,,-0.1671716,1.656522,1.222567,,,-0.1659375,1.701645,1.208043,,45.8734855478893,36.5720317421649,17.6538818809885
0.656, 9.33,9.33,,,-0.1689062,1.661135,1.229435,,,-0.1676929,1.705511,1.215069,,45.8734855478893,36.5272120420785,17.7494396399124
0.666, 9.12,9.12,,,-0.1703679,1.666301,1.236367,,,-0.1692196,1.709649,1.222237,,45.8734855478893,36.4332388869979,17.8598206164701
0.677, 9.02,9.02,,,-0.1714377,1.670901,1.243033,,,-0.1703832,1.713716,1.228944,,45.8734855478893,36.2686586533372,18.013284717566
0.689, 9.09,9.09,,,-0.1713148,1.676388,1.251228,,,-0.1703964,1.719473,1.236807,,45.8734855478893,35.9751415272075,18.2917566449201
0.7, 9.19,9.19,,,-0.1705149,1.682173,1.259405,,,-0.169732,1.725638,1.244547,,45.8734855478893,35.6496249657068,18.6478365945588
0.711, 9.03,9.03,,,-0.1709682,1.688289,1.267163,,,-0.1702625,1.73091,1.252264,,45.8734855478893,35.4043870303818,19.0376252343609
0.722, 8.7,8.7,,,-0.1723555,1.694422,1.274333,,,-0.1716459,1.735379,1.259741,,45.8734855478893,35.2921362895909,19.3822902306669
0.733, 8.14,8.14,,,-0.1742899,1.700526,1.280102,,,-0.1734845,1.738819,1.266269,,45.8734855478893,35.3658818400074,19.6424026100429
0.744, 7.85,7.85,,,-0.1768062,1.704849,1.286036,,,-0.1758973,1.741732,1.272654,,45.8734855478893,35.5079600160737,19.7349175197762
経過時間(s),めり込み量(mm),Y軸めり込み量(mm),,デバイス先端,X座標,Y座標,Z座標,,仮想物体との接触位置,X座標,Y座標,Z座標,,接触点の法線と床の法線とのなす角,接触点の法線とデバイスの方向ベクトルのなす角,床の法線とデバイスの方向ベクトルのなす角
0.001, 0.07,-0.07,,,-0.1224349,1.56732,0.9809396,,,-0.1224582,1.566997,0.9809965,,45.8734855478893,42.7863459968832,10.5586994978673
0.011, 0.81,0.81,,,-0.1204467,1.56493,0.98204,,,-0.1201799,1.568915,0.9813331,,45.8734855478893,42.5135858150635,10.5029224671098
0.023, 1.38,1.38,,,-0.1192638,1.563357,0.9828622,,,-0.1188304,1.570142,0.9816561,,45.8734855478893,42.3586429780535,10.4620574464428
0.033, 1.4,1.4,,,-0.1198848,1.562693,0.9826858,,,-0.1194474,1.569551,0.9814682,,45.8734855478893,42.3611633177871,10.4482818090439
0.044, 1.5,1.5,,,-0.120427,1.561973,0.983035,,,-0.119958,1.569366,0.9817258,,45.8734855478893,42.3603027139756,10.4188633313336
0.055, 1.65,1.65,,,-0.1201466,1.561169,0.9827446,,,-0.1196381,1.569296,0.98131,,45.8734855478893,42.3374830525936,10.3729311642171
0.066, 1.93,1.93,,,-0.120385,1.560434,0.983984,,,-0.1198025,1.569908,0.9823093,,45.8734855478893,42.2798089368469,10.3645061261103
0.077, 2,2,,,-0.1206639,1.560354,0.9847087,,,-0.1200675,1.570195,0.9829661,,45.8734855478893,42.2286883874265,10.3644301402579
0.088, 1.92,1.92,,,-0.1213469,1.560472,0.9849936,,,-0.120772,1.569931,0.9833107,,45.8734855478893,42.2099907450939,10.4116096706369
0.099, 1.91,1.91,,,-0.1213923,1.561196,0.9859005,,,-0.120822,1.570565,0.9842252,,45.8734855478893,42.1864095176407,10.4595746727486
0.11, 2.3,2.3,,,-0.1212482,1.561286,0.9888148,,,-0.1205828,1.572598,0.9867572,,45.8734855478893,41.9926916977915,10.585242466017
0.121, 2.44,2.44,,,-0.1216552,1.561283,0.9902761,,,-0.1209767,1.57327,0.9880666,,45.8734855478893,41.8129586898787,10.6759900643518
0.133, 2.62,2.62,,,-0.1217244,1.561791,0.9923636,,,-0.1210162,1.574646,0.9899828,,45.8734855478893,41.715450912001,10.6962304756202
0.145, 2.69,2.69,,,-0.122829,1.561587,0.993701,,,-0.1221076,1.57479,0.9912703,,45.8734855478893,41.7289405352364,10.6311379208677
0.155, 2.57,2.57,,,-0.1241677,1.56196,0.9946853,,,-0.1234758,1.574602,0.9923822,,45.8734855478893,41.7946093871841,10.530950147589
0.166, 2.72,2.72,,,-0.1253017,1.561783,0.9966795,,,-0.1245744,1.575169,0.994253,,45.8734855478893,41.8042570291182,10.4770369046494
0.177, 2.97,2.97,,,-0.1259496,1.562205,0.9997587,,,-0.1251794,1.576818,0.9971061,,45.8734855478893,41.7211780254607,10.4644650880582
0.188, 3.47,3.47,,,-0.1264198,1.562811,1.004824,,,-0.1255819,1.579865,1.001663,,45.8734855478893,41.4350067675789,10.6118315379423
0.199, 4,4,,,-0.1262296,1.563524,1.009619,,,-0.1253376,1.583145,1.005891,,45.8734855478893,41.1171229422633,10.8106993202824
0.21, 4.56,4.56,,,-0.1260892,1.564145,1.014664,,,-0.1251529,1.586532,1.010324,,45.8734855478893,40.8260817596388,10.9735199265072
0.222, 4.96,4.96,,,-0.1268241,1.564681,1.019179,,,-0.1258825,1.588987,1.014401,,45.8734855478893,40.5980763911103,11.0843781625198
0.233, 5.27,5.27,,,-0.1276972,1.565743,1.023908,,,-0.126767,1.59156,1.018792,,45.8734855478893,40.4228513079243,11.1418200518411
0.244, 5.61,5.61,,,-0.1283958,1.566675,1.028444,,,-0.1274459,1.594162,1.023019,,45.8734855478893,40.3798962494294,11.0834723087063
0.255, 5.76,5.76,,,-0.1300428,1.568268,1.033412,,,-0.1290805,1.596526,1.027876,,45.8734855478893,40.4017870051101,11.0004701446748
0.272, 5.61,5.61,,,-0.1323323,1.57072,1.037887,,,-0.1313628,1.598257,1.032519,,45.8734855478893,40.4860168956108,10.9583321475366
0.278, 5.55,5.55,,,-0.1340493,1.574021,1.043637,,,-0.1330566,1.601258,1.038304,,45.8734855478893,40.5158579912642,11.0190858247396
0.288, 5.5,5.5,,,-0.1360738,1.577379,1.049843,,,-0.1350799,1.604325,1.044508,,45.8734855478893,40.4675378193256,11.141449514089
0.299, 5.51,5.51,,,-0.1377791,1.580704,1.056255,,,-0.1367947,1.607707,1.050833,,45.8734855478893,40.3607000033013,11.2875301808976
0.31, 5.5,5.5,,,-0.1392768,1.584079,1.062388,,,-0.1383187,1.611026,1.056883,,45.8734855478893,40.2092712985214,11.4696827832565
0.322, 5.51,5.51,,,-0.1408513,1.587995,1.069458,,,-0.1399128,1.61498,1.063866,,45.8734855478893,40.0831279533453,11.6199486483625
0.333, 5.23,5.23,,,-0.1431749,1.592574,1.07593,,,-0.1422958,1.618139,1.070557,,45.8734855478893,39.9747123636666,11.7748163532938
0.344, 4.88,4.88,,,-0.1455975,1.597735,1.082836,,,-0.1447781,1.621606,1.077765,,45.8734855478893,39.9025923982273,11.8973593351039
0.355, 4.71,4.71,,,-0.1472033,1.602335,1.089451,,,-0.1464257,1.625334,1.084496,,45.8734855478893,39.7867626384109,12.0549275260031
0.366, 4.57,4.57,,,-0.1485019,1.607521,1.096876,,,-0.1477771,1.629839,1.091988,,45.8734855478893,39.6170768384877,12.23507632167
0.377, 4.62,4.62,,,-0.1500589,1.612077,1.105152,,,-0.1493773,1.634629,1.100119,,45.8734855478893,39.3857622433983,12.4431324157354
0.389, 4.87,4.87,,,-0.1505075,1.616649,1.113878,,,-0.1498713,1.640385,1.10846,,45.8734855478893,39.0724341541323,12.6953192145738
0.399, 4.94,4.94,,,-0.1513139,1.621938,1.122543,,,-0.150734,1.645964,1.116929,,45.8734855478893,38.7876665000859,12.9697997502428
0.411, 4.97,4.97,,,-0.1527531,1.626697,1.130857,,,-0.1521958,1.650881,1.125094,,45.8734855478893,38.5990405861213,13.2156421572924
0.422, 4.89,4.89,,,-0.1545262,1.631961,1.139222,,,-0.1539844,1.655723,1.133484,,45.8734855478893,38.4952148834371,13.3851819619263
0.433, 4.73,4.73,,,-0.1565746,1.637155,1.147168,,,-0.1560404,1.660145,1.141568,,45.8734855478893,38.454042504266,13.5016699812056
0.444, 4.87,4.87,,,-0.1571397,1.642331,1.155895,,,-0.1565889,1.66599,1.150086,,45.8734855478893,38.4004904075688,13.6053240753916
0.455, 5.15,5.15,,,-0.1578494,1.646895,1.164983,,,-0.1572912,1.671863,1.158794,,45.8734855478893,38.2889329309593,13.7271029298096
0.467, 5.68,5.68,,,-0.1574282,1.652192,1.176002,,,-0.1568681,1.679716,1.169077,,45.8734855478893,38.0879409598465,13.9171922117632
0.477, 6.07,6.07,,,-0.157174,1.657352,1.185912,,,-0.1566216,1.686766,1.178442,,45.8734855478893,37.9467131423081,14.0363175377624
0.488, 6.21,6.21,,,-0.1582967,1.662459,1.195086,,,-0.1577261,1.692542,1.187421,,45.8734855478893,37.9311983680402,14.0835790304091
0.5, 6.25,6.25,,,-0.1593414,1.667673,1.2035,,,-0.1587207,1.697937,1.19577,,45.8734855478893,37.9858842761081,14.1244030699423
0.511, 6.08,6.08,,,-0.1609163,1.673615,1.211787,,,-0.1602291,1.703051,1.204251,,45.8734855478893,38.1038996963981,14.1683493596129
0.522, 5.67,5.67,,,-0.162995,1.680179,1.219568,,,-0.1622834,1.707612,1.212523,,45.8734855478893,38.2047850027264,14.2241477347109
0.533, 5.43,5.43,,,-0.1645266,1.68616,1.227357,,,-0.1637722,1.712435,1.220588,,45.8734855478893,38.3133132905232,14.2839827514961
0.544, 4.97,4.97,,,-0.1663725,1.693023,1.234938,,,-0.1655968,1.717046,1.228698,,45.8734855478893,38.4240750501165,14.4201032952247
0.555, 4.58,4.58,,,-0.1684152,1.699381,1.242592,,,-0.1676089,1.721508,1.236793,,45.8734855478893,38.5569905276663,14.5730926981865
0.566, 4.35,4.35,,,-0.1696064,1.705558,1.250471,,,-0.1687959,1.72659,1.244908,,45.8734855478893,38.5907453216051,14.717674138514
0.577, 4.24,4.24,,,-0.1709156,1.710862,1.258106,,,-0.1701131,1.731309,1.25266,,45.8734855478893,38.5741377171004,14.8197974165949
0.589, 4.37,4.37,,,-0.1708634,1.715373,1.265282,,,-0.1700664,1.736448,1.259618,,45.8734855478893,38.4405050697078,14.9358201292499
0.599, 4.75,4.75,,,-0.1704267,1.719111,1.272979,,,-0.1696174,1.742024,1.266771,,45.8734855478893,38.2613321372914,15.0331520297614
