経過時間(s),めり込み量(mm),Y軸めり込み量(mm),,デバイス先端,X座標,Y座標,Z座標,,仮想物体との接触位置,X座標,Y座標,Z座標,,接触点の法線と床の法線とのなす角,接触点の法線とデバイスの方向ベクトルのなす角,床の法線とデバイスの方向ベクトルのなす角
0, 0.36,-0.36,,,0.05789759,1.641686,1.024062,,,0.05761076,1.640017,1.024637,,44.7499911776726,27.4873152006994,20.8211583317491
0.01, 0.11,-0.11,,,0.05783087,1.641034,1.024963,,,0.05774461,1.640521,1.025141,,44.7499911776726,27.2583792189224,20.8895455989108
0.022, 0.11,0.11,,,0.05591221,1.640713,1.026006,,,0.05599585,1.641211,1.025831,,44.7499911776726,27.1453088554538,20.9874409900131
0.033, 0.29,0.29,,,0.05455952,1.640131,1.026554,,,0.05478387,1.641466,1.026086,,44.7499911776726,27.1265890150071,21.0058159059164
0.044, 0.37,0.37,,,0.053172,1.639484,1.026446,,,0.05346724,1.641221,1.025841,,44.7499911776726,27.246841322188,20.9684855080465
0.055, 0.42,0.42,,,0.05092105,1.639409,1.026661,,,0.05125867,1.641364,1.025984,,44.7499911776726,27.4219605374448,20.9087794110783
0.067, 0.41,0.41,,,0.04870521,1.639544,1.026738,,,0.04904443,1.641461,1.026081,,44.7499911776726,27.6372446789982,20.8791602965668
0.077, 0.23,0.23,,,0.04596319,1.640407,1.026467,,,0.04615769,1.641481,1.026101,,44.7499911776726,27.8078491393393,20.8863371176375
0.089, 0.25,0.25,,,0.04462162,1.640581,1.026741,,,0.04483196,1.64173,1.02635,,44.7499911776726,27.8709737458919,20.9066740053253
0.099, 0.55,0.55,,,0.044811,1.639966,1.028048,,,0.0452778,1.642545,1.027165,,44.7499911776726,27.743834900672,20.9369522330734
0.11, 0.65,0.65,,,0.04557651,1.639873,1.028551,,,0.04611678,1.642894,1.027513,,44.7499911776726,27.6431476698241,20.9447864598334
0.121, 1.49,1.49,,,0.0447073,1.637599,1.031572,,,0.0459164,1.644551,1.029171,,44.7499911776726,27.4664711714799,20.9166426661415
0.133, 2.18,2.18,,,0.04560675,1.635123,1.033463,,,0.04731352,1.645308,1.029927,,44.7499911776726,27.2764399461326,20.8533404746754
0.145, 2.99,2.99,,,0.04683128,1.632467,1.035891,,,0.0490688,1.646414,1.031034,,44.7499911776726,27.105393231055,20.7519121683232
0.156, 3.85,3.85,,,0.04852243,1.628432,1.037276,,,0.0512845,1.646402,1.031022,,44.7499911776726,27.0154686704923,20.5994179540624
0.166, 4.54,4.54,,,0.04913213,1.624982,1.038199,,,0.05228027,1.64622,1.03084,,44.7499911776726,27.0076173682599,20.4203525971224
0.177, 5.08,5.08,,,0.04912376,1.621699,1.038292,,,0.0525558,1.645474,1.030094,,44.7499911776726,27.0354008694831,20.2655309959668
0.188, 5.55,5.55,,,0.04827083,1.618201,1.037792,,,0.05198182,1.644221,1.028841,,44.7499911776726,27.0512264173496,20.1938976814924
0.199, 6.04,6.04,,,0.04768606,1.615157,1.037826,,,0.05170583,1.643449,1.028069,,44.7499911776726,27.0005481226656,20.223803663941
0.21, 6.38,6.38,,,0.04716999,1.612884,1.037711,,,0.05145375,1.642776,1.027396,,44.7499911776726,27.0072109720156,20.2575721182579
0.222, 6.79,6.79,,,0.04650729,1.610469,1.037831,,,0.0511229,1.642277,1.026897,,44.7499911776726,27.0978731929881,20.2321894284612
0.232, 7.18,7.18,,,0.04582994,1.607705,1.037413,,,0.05083363,1.641382,1.026002,,44.7499911776726,27.3920169889567,20.0747638177569
0.244, 7.6,7.6,,,0.04478921,1.605521,1.037733,,,0.05018935,1.641192,1.025812,,44.7499911776726,27.6630593782479,19.9201368769872
0.255, 8.01,8.01,,,0.04544863,1.603631,1.038373,,,0.05121286,1.641259,1.025878,,44.7499911776726,27.7960448652347,19.8603095441646
0.266, 8.32,8.32,,,0.04596358,1.60326,1.039952,,,0.05196498,1.642322,1.026941,,44.7499911776726,27.752080646318,19.9163973485206
0.277, 8.11,8.11,,,0.04691835,1.604866,1.040334,,,0.05273983,1.642927,1.027547,,44.7499911776726,27.598922196179,20.0334633725424
0.289, 8.36,8.36,,,0.04793363,1.605506,1.042541,,,0.0539658,1.64466,1.02928,,44.7499911776726,27.4799300588648,20.1818936243601
0.3, 8.3,8.3,,,0.04855685,1.607801,1.044582,,,0.05462803,1.646636,1.031255,,44.7499911776726,27.2939610884134,20.4329457580542
0.311, 7.92,7.92,,,0.04828054,1.611307,1.045737,,,0.05416845,1.648283,1.032902,,44.7499911776726,27.1432341855512,20.6745602781253
0.322, 7.32,7.32,,,0.04820094,1.616364,1.047108,,,0.05377628,1.65048,1.035099,,44.7499911776726,26.9708265553194,20.9830543011408
0.333, 7,7,,,0.04824655,1.619978,1.048781,,,0.05370036,1.652571,1.037191,,44.7499911776726,26.8573634559846,21.2292723685843
0.344, 6.57,6.57,,,0.04786588,1.624336,1.050376,,,0.05307335,1.654863,1.039482,,44.7499911776726,26.8505213141739,21.3550998175201
0.355, 6.32,6.32,,,0.04766608,1.627901,1.052412,,,0.0527559,1.657285,1.041905,,44.7499911776726,26.8599862485529,21.4441381610627
0.366, 6.05,6.05,,,0.04692841,1.631082,1.053845,,,0.05185513,1.659197,1.043817,,44.7499911776726,26.9376762331052,21.4487331706989
0.377, 5.71,5.71,,,0.04700337,1.634903,1.055495,,,0.05168946,1.661423,1.046042,,44.7499911776726,26.9747351309632,21.4703251056118
0.388, 5.65,5.65,,,0.04773254,1.638212,1.05848,,,0.05236701,1.664461,1.049081,,44.7499911776726,26.8933995330427,21.5391614576989
0.4, 5.42,5.42,,,0.04903417,1.642332,1.061165,,,0.05348012,1.66748,1.0521,,44.7499911776726,26.7827777923236,21.6492982550006
0.41, 5.05,5.05,,,0.0494287,1.647069,1.063607,,,0.05359355,1.670499,1.055119,,44.7499911776726,26.7109173740655,21.751920136877
0.422, 4.63,4.63,,,0.04921991,1.652063,1.065972,,,0.05309036,1.673529,1.058148,,44.7499911776726,26.6507792676444,21.9042213982991
0.433, 4.2,4.2,,,0.04884595,1.657093,1.068249,,,0.05240721,1.676514,1.061133,,44.7499911776726,26.6126548603056,22.0566865842566
0.444, 3.66,3.66,,,0.04902929,1.662786,1.070563,,,0.05218729,1.679708,1.064327,,44.7499911776726,26.5724421226861,22.2196566008654
0.455, 3.32,3.32,,,0.04932333,1.667762,1.073393,,,0.05222906,1.683096,1.067716,,44.7499911776726,26.5408576212956,22.3611576259629
0.466, 2.99,2.99,,,0.04993882,1.672431,1.07598,,,0.05258234,1.686239,1.070859,,44.7499911776726,26.547544376307,22.4324152800434
0.477, 2.66,2.66,,,0.05050177,1.677141,1.078586,,,0.05287807,1.689409,1.074029,,44.7499911776726,26.5646847355522,22.5060720380032
0.489, 2.29,2.29,,,0.05016798,1.681828,1.080904,,,0.05224237,1.692371,1.076991,,44.7499911776726,26.6380921916141,22.5616868517724
0.5, 1.96,1.96,,,0.04998587,1.686646,1.083646,,,0.05179984,1.695677,1.080297,,44.7499911776726,26.7312269409974,22.6448187893945
0.511, 1.67,1.67,,,0.04940839,1.691528,1.086672,,,0.05097759,1.699203,1.083822,,44.7499911776726,26.7795727261447,22.7502461713945
0.522, 1.49,1.49,,,0.04919322,1.695498,1.089507,,,0.05060966,1.702346,1.086965,,44.7499911776726,26.835243888973,22.7985390225772
0.533, 1.44,1.44,,,0.04885823,1.699118,1.092803,,,0.05023202,1.705734,1.090354,,44.7499911776726,26.8937990990981,22.7796791632563
0.544, 1.57,1.57,,,0.04993368,1.701925,1.096469,,,0.0514267,1.709168,1.093788,,44.7499911776726,26.8655955412526,22.7412986238308
0.555, 1.76,1.76,,,0.0506629,1.703677,1.099422,,,0.05231711,1.711788,1.096408,,44.7499911776726,26.7508073852557,22.7548104451803
0.566, 1.79,1.79,,,0.05243404,1.709674,1.105619,,,0.05410155,1.717904,1.102524,,44.7499911776726,26.5217365072463,22.9061810933539
0.577, 1.79,1.79,,,0.05331153,1.713965,1.109933,,,0.05497276,1.722186,1.106806,,44.7499911776726,26.3076015449887,23.0787253273653
0.589, 1.76,1.76,,,0.05470401,1.718707,1.114507,,,0.05633398,1.726788,1.111407,,44.7499911776726,26.1501059248474,23.2076878330429
0.599, 1.9,1.9,,,0.05549731,1.722559,1.119244,,,0.0572511,1.73127,1.11589,,44.7499911776726,26.0750284875799,23.2606866844327
0.611, 1.84,1.84,,,0.0568652,1.726972,1.123257,,,0.05855767,1.735389,1.120008,,44.7499911776726,26.0237184004153,23.2972213652865
0.622, 1.94,1.94,,,0.05802287,1.730859,1.127839,,,0.05981878,1.739772,1.124391,,44.7499911776726,25.991536257489,23.3439791314959
0.633, 1.91,1.91,,,0.05813396,1.735465,1.132222,,,0.05991086,1.744213,1.128833,,44.7499911776726,25.9967955030036,23.4045270492559
0.644, 1.89,1.89,,,0.05830737,1.739413,1.136058,,,0.06009559,1.748087,1.132706,,44.7499911776726,26.1028598001259,23.4338353901689
0.655, 1.88,1.88,,,0.05787732,1.743372,1.139909,,,0.05967737,1.751974,1.136593,,44.7499911776726,26.2104591822215,23.4644226839683
0.666, 1.84,1.84,,,0.05712742,1.74757,1.143859,,,0.05892691,1.755997,1.140616,,44.7499911776726,26.3301018950359,23.5351492908556
0.677, 1.81,1.81,,,0.05639054,1.751866,1.147969,,,0.05819559,1.760158,1.144778,,44.7499911776726,26.4129350118902,23.6371342576097
0.689, 1.73,1.73,,,0.05588954,1.756279,1.151853,,,0.05763667,1.76418,1.1488,,44.7499911776726,26.4143864270485,23.7828051130795
0.699, 1.93,1.93,,,0.05632147,1.759686,1.156537,,,0.0582752,1.768497,1.153117,,44.7499911776726,26.3509817827476,23.8663024658121
0.711, 2.28,2.28,,,0.05729496,1.762835,1.161896,,,0.05958896,1.773227,1.157847,,44.7499911776726,26.2609291561415,23.9046522693872
0.722, 2.7,2.7,,,0.05846173,1.76566,1.167444,,,0.06114446,1.777998,1.162618,,44.7499911776726,26.1203963103319,23.8899759008165
0.733, 3.19,3.19,,,0.05945504,1.767789,1.172696,,,0.06258363,1.782367,1.166987,,44.7499911776726,26.0379508067022,23.8454294082893
0.744, 3.5,3.5,,,0.06049443,1.769822,1.176689,,,0.06390499,1.785821,1.170441,,44.7499911776726,26.0607124114779,23.7635064141166
0.755, 3.56,3.56,,,0.05959678,1.771593,1.178786,,,0.06306974,1.787837,1.172457,,44.7499911776726,26.1120566495874,23.7439396302363
0.766, 3.64,3.64,,,0.05934667,1.77534,1.183053,,,0.06294157,1.791975,1.176595,,44.7499911776726,26.2258885791272,23.7384259601823
0.777, 3.52,3.52,,,0.05822062,1.780562,1.187487,,,0.06174758,1.796639,1.181258,,44.7499911776726,26.3326580932617,23.7815346979292
0.788, 3.32,3.32,,,0.05749173,1.785662,1.191286,,,0.06087479,1.800789,1.185409,,44.7499911776726,26.3725720101132,23.9299734874831
0.8, 3.15,3.15,,,0.05693359,1.790966,1.195549,,,0.06019729,1.805314,1.189933,,44.7499911776726,26.3261745363725,24.1380859306076
0.811, 3.14,3.14,,,0.05640432,1.795949,1.200474,,,0.05967749,1.810227,1.194847,,44.7499911776726,26.2384288060944,24.2949173148706
0.822, 3.3,3.3,,,0.05739624,1.799793,1.205374,,,0.06082246,1.814806,1.199426,,44.7499911776726,26.1217777160531,24.3550673741225
0.833, 3.6,3.6,,,0.05827505,1.803275,1.210752,,,0.06196519,1.819631,1.204251,,44.7499911776726,26.0063150788944,24.3457083076727
0.844, 4.01,4.01,,,0.05899802,1.805735,1.215875,,,0.06304339,1.823996,1.208615,,44.7499911776726,25.913890669165,24.2529731243447
0.855, 4.29,4.29,,,0.06001979,1.808827,1.220751,,,0.06428363,1.828369,1.212989,,44.7499911776726,25.8573811006394,24.1611497712456
0.867, 4.55,4.55,,,0.06023409,1.812631,1.226222,,,0.06470524,1.833372,1.217992,,44.7499911776726,25.8225061557078,24.0816361262356
0.878, 4.66,4.66,,,0.0604289,1.816756,1.231039,,,0.06499577,1.837999,1.222619,,44.7499911776726,25.8282127786006,24.0515047475505
0.888, 4.53,4.53,,,0.0600379,1.821816,1.235254,,,0.06449697,1.842451,1.227071,,44.7499911776726,25.8447008547982,24.0834273432955
0.899, 4.45,4.45,,,0.05858004,1.826516,1.239464,,,0.06301164,1.846793,1.231413,,44.7499911776726,25.8736642711676,24.1616330071159
0.91, 4.04,4.04,,,0.05728172,1.833763,1.244051,,,0.06136596,1.852136,1.236756,,44.7499911776726,25.9529439822051,24.2502547091307
0.922, 3.69,3.69,,,0.05522594,1.839739,1.247808,,,0.05902753,1.856531,1.24115,,44.7499911776726,26.0694328552581,24.322716184019
0.933, 3.15,3.15,,,0.05381821,1.846272,1.250889,,,0.05712008,1.860601,1.245221,,44.7499911776726,26.1999184930782,24.3814950828331
0.944, 2.78,2.78,,,0.05166514,1.852188,1.254437,,,0.05463533,1.864833,1.249453,,44.7499911776726,26.3634212644274,24.4323321794108
0.955, 2.54,2.54,,,0.04994707,1.857754,1.258423,,,0.05269026,1.869285,1.253904,,44.7499911776726,26.5331907341656,24.4158133673629
0.966, 2.02,2.02,,,0.04841547,1.862419,1.261497,,,0.05062598,1.871621,1.257922,,45.249984916666,66.8398058860292,24.33725594881
0.977, 0.58,-0.58,,,0.04760958,1.866251,1.264918,,,0.04697061,1.863612,1.265931,,45.249984916666,66.6352963675917,24.2069239902419
0.989, 2.66,-2.66,,,0.04539764,1.869431,1.267689,,,0.04243654,1.857301,1.272242,,45.249984916666,66.228517632702,23.9133744207146
1, 3.66,-3.66,,,0.04384074,1.870776,1.269423,,,0.03973131,1.854034,1.27551,,45.249984916666,65.6615231549098,23.4780813543809
1.011, 4.58,-4.58,,,0.04183153,1.871854,1.271368,,,0.03664848,1.850792,1.278751,,45.249984916666,65.0315406743446,22.9824060023701
1.022, 4.37,-4.37,,,0.04012413,1.870515,1.272456,,,0.03516879,1.850322,1.279221,,45.249984916666,64.2627277725729,22.3513528896822
1.033, 3.93,-3.93,,,0.03841793,1.86898,1.272997,,,0.03396021,1.850742,1.278801,,45.249984916666,63.4246772451116,21.6678968595929
1.044, 2.64,-2.64,,,0.03567018,1.865731,1.27247,,,0.03266332,1.85341,1.276133,,45.249984916666,62.3683748589851,20.8446661346708
1.055, 1.28,-1.28,,,0.03249016,1.862609,1.271296,,,0.0310173,1.856591,1.272952,,45.249984916666,61.2544598288127,20.0323773724946
1.067, 0.72,0.72,,,0.02938764,1.858008,1.268992,,,0.03022243,1.861397,1.268147,,45.249984916666,59.9338974310521,19.1356828424514
1.078, 2.43,2.43,,,0.02693882,1.853516,1.267087,,,0.02978188,1.865036,1.264508,,45.249984916666,58.6254791092978,18.2625080681607
1.089, 3.17,3.17,,,0.02665468,1.850214,1.267329,,,0.0303573,1.865291,1.264252,,45.249984916666,57.5783564971604,17.5493048575166
1.1, 2.61,2.61,,,0.02914045,1.848011,1.271475,,,0.03217584,1.860494,1.26905,,45.249984916666,57.0436005113535,17.1330799712677
1.111, 1.28,1.28,,,0.03125172,1.847045,1.27756,,,0.03271823,1.853143,1.276401,,45.249984916666,56.7965798967048,16.8864742905995
1.122, 0.48,-0.48,,,0.03443794,1.845989,1.285407,,,0.03389348,1.843704,1.285839,,45.249984916666,56.7465965737495,16.777913559405
1.133, 1.16,-1.16,,,0.03631735,1.843582,1.290512,,,0.03500365,1.838012,1.291532,,45.249984916666,56.3933255393288,16.471799857249
1.144, 1.22,-1.22,,,0.03885491,1.838914,1.295477,,,0.03750364,1.833066,1.296477,,45.249984916666,55.7130148112648,15.8915172467964
1.155, 0.58,-0.58,,,0.04046958,1.833018,1.298871,,,0.03984487,1.830242,1.299302,,45.249984916666,54.8085885072963,15.1437618176499
1.166, 0.31,0.31,,,0.04290123,1.827009,1.301244,,,0.0432283,1.828507,1.301036,,45.249984916666,53.8558761823342,14.360052273713
1.177, 0.37,0.37,,,0.04398411,1.82278,1.305192,,,0.04437014,1.824582,1.304961,,45.249984916666,53.2518142689478,13.8835859744346
1.189, 0.07,0.07,,,0.04386224,1.819933,1.309329,,,0.04393023,1.820254,1.30929,,45.249984916666,52.895852140069,13.6123924672122
1.2, 0.21,-0.21,,,0.04336897,1.817225,1.313208,,,0.04315721,1.81622,1.313324,,45.249984916666,52.5177841045565,13.3795897446989
1.211, 0.1,-0.1,,,0.04272912,1.813517,1.31644,,,0.04263292,1.813054,1.316489,,45.249984916666,52.0279741773322,13.0430005930881
1.222, 0.41,0.41,,,0.04231982,1.808176,1.319577,,,0.04272303,1.810159,1.319384,,45.249984916666,51.4818459268737,12.5928168610045
1.233, 0.99,0.99,,,0.04257716,1.801917,1.323224,,,0.04352666,1.806741,1.322802,,45.249984916666,50.8894602215486,12.0542897571071
1.244, 1.55,1.55,,,0.0435536,1.794819,1.327733,,,0.04498305,1.802405,1.327139,,45.249984916666,50.3163595548083,11.4398638857173
1.255, 2.07,2.07,,,0.04394282,1.787902,1.332186,,,0.04577513,1.79808,1.331463,,45.249984916666,49.83641925066,10.8624687376559
1.266, 2.4,2.4,,,0.04472492,1.780778,1.337742,,,0.04675997,1.79259,1.336953,,45.249984916666,49.5401973696942,10.380458032473
1.277, 2.72,2.72,,,0.04519362,1.774416,1.342574,,,0.04740753,1.787807,1.341737,,45.249984916666,49.250085092771,9.93851919226185
1.289, 3.21,3.21,,,0.04471118,1.767557,1.347075,,,0.04723267,1.783378,1.346166,,45.249984916666,48.9186296819522,9.53322602347536
1.3, 3.72,3.72,,,0.04432593,1.76139,1.350719,,,0.04716936,1.77974,1.349804,,45.249984916666,48.4625472279109,9.17209002644421
1.311, 4.35,4.35,,,0.04324153,1.754057,1.354876,,,0.04649275,1.775555,1.353988,,45.249984916666,47.9540157526925,8.84695510175274
1.322, 5.28,5.28,,,0.04107138,1.74682,1.357363,,,0.04498436,1.772897,1.356647,,45.249984916666,47.1697905294876,8.63180927152619
1.333, 6.74,6.74,,,0.03894143,1.738277,1.358321,,,0.04389512,1.771608,1.357935,,45.249984916666,46.2679665275205,8.46287735371158
1.344, 8.45,8.45,,,0.03681924,1.728875,1.358632,,,0.04290061,1.770667,1.358877,,45.249984916666,45.2649225399651,8.2996665729413
1.355, 9.88,9.88,,,0.03614733,1.719417,1.360263,,,0.04300056,1.768321,1.361222,,45.249984916666,44.4499546361615,8.09228239871683
1.366, 10.55,10.55,,,0.03727658,1.710578,1.365408,,,0.04416759,1.762856,1.366688,,45.249984916666,44.1107093948111,7.68561550817175
1.377, 10.7,10.7,,,0.039025,1.701938,1.373393,,,0.0455237,1.755015,1.374529,,45.249984916666,44.2151293239365,7.13261864892032
1.389, 9.91,9.91,,,0.04260398,1.694713,1.384996,,,0.04812591,1.743974,1.385569,,45.249984916666,44.6966166658888,6.46050030565096
経過時間(s),めり込み量(mm),Y軸めり込み量(mm),,デバイス先端,X座標,Y座標,Z座標,,仮想物体との接触位置,X座標,Y座標,Z座標,,接触点の法線と床の法線とのなす角,接触点の法線とデバイスの方向ベクトルのなす角,床の法線とデバイスの方向ベクトルのなす角
0.001, 0.88,-0.88,,,0.06935429,1.652777,1.03226,,,0.06843446,1.648577,1.033197,,44.7499911776726,34.3642892676102,17.1829727942189
0.011, 0.04,-0.04,,,0.0692907,1.648713,1.033115,,,0.06925236,1.648534,1.033154,,44.7499911776726,34.454625347059,16.9359009531529
0.022, 0.77,0.77,,,0.0693564,1.64482,1.033937,,,0.07013617,1.64851,1.03313,,44.7499911776726,34.4584468377933,16.7404175294523
0.033, 1.64,1.64,,,0.06956588,1.641037,1.035206,,,0.07118773,1.648871,1.033491,,44.7499911776726,34.3907767404745,16.5817454092592
0.044, 2.34,2.34,,,0.06999884,1.637396,1.0357,,,0.07228885,1.648628,1.033248,,44.7499911776726,34.3680766073996,16.4485635543393
0.055, 3.06,3.06,,,0.06932732,1.633795,1.036253,,,0.07228934,1.648459,1.033078,,44.7499911776726,34.4317544592596,16.3122073690909
0.066, 3.68,3.68,,,0.06909972,1.630375,1.036429,,,0.0726399,1.648012,1.032632,,44.7499911776726,34.4750168762586,16.2198615065348
0.078, 4.07,4.07,,,0.06849648,1.627837,1.036193,,,0.07241573,1.647376,1.031996,,44.7499911776726,34.5007769339965,16.1941919488009
0.089, 4.5,4.5,,,0.0683482,1.625136,1.035946,,,0.07268219,1.646733,1.031353,,44.7499911776726,34.6113679388653,16.1179380114815
0.1, 4.81,4.81,,,0.06829016,1.622306,1.034869,,,0.07292226,1.645404,1.030023,,44.7499911776726,34.7603514359903,16.003779940418
0.111, 5.32,5.32,,,0.06817886,1.619393,1.034918,,,0.07326913,1.644975,1.029595,,44.7499911776726,34.825009419969,15.8817722746692
0.122, 6.03,6.03,,,0.0693114,1.615668,1.035279,,,0.07498486,1.644658,1.029278,,44.7499911776726,34.8323450429334,15.7199958335847
0.133, 6.75,6.75,,,0.07009374,1.611731,1.035602,,,0.07627042,1.644239,1.028859,,44.7499911776726,34.7266615288467,15.5272888817045
0.144, 7.58,7.58,,,0.07152993,1.607162,1.03589,,,0.07825074,1.643676,1.028296,,44.7499911776726,34.6119689954955,15.3352290902302
0.155, 7.95,7.95,,,0.07177615,1.604182,1.035143,,,0.07866214,1.642498,1.027118,,44.7499911776726,34.4746856120931,15.2386126520144
0.166, 7.99,7.99,,,0.0714694,1.60291,1.034171,,,0.07834639,1.641432,1.026052,,44.7499911776726,34.3872865139057,15.2505108412175
0.178, 7.94,7.94,,,0.06955341,1.602067,1.033049,,,0.07644689,1.640324,1.024944,,44.7499911776726,34.3541020407466,15.3516727701994
0.189, 7.91,7.91,,,0.06804761,1.601032,1.031776,,,0.07499719,1.639132,1.023752,,44.7499911776726,34.4501720638441,15.3801939318324
0.2, 7.85,7.85,,,0.06669644,1.600352,1.030638,,,0.07366312,1.638164,1.022784,,44.7499911776726,34.6288429773704,15.3309158258894
0.211, 7.88,7.88,,,0.06561221,1.599428,1.029798,,,0.07265051,1.637427,1.022047,,44.7499911776726,34.8404080810243,15.2192029624806
0.222, 7.9,7.9,,,0.06565701,1.599458,1.029937,,,0.07271062,1.637542,1.022162,,44.7499911776726,34.8296471182864,15.2267076326223
0.233, 7.9,7.9,,,0.06652482,1.600877,1.03141,,,0.07355669,1.638938,1.023558,,44.7499911776726,34.7104978866257,15.2936076261337
0.244, 7.96,7.96,,,0.06670017,1.600971,1.031888,,,0.07376529,1.639307,1.023926,,44.7499911776726,34.6315033359781,15.3314963919527
0.255, 7.96,7.96,,,0.06751084,1.602462,1.033464,,,0.07455693,1.640782,1.025401,,44.7499911776726,34.4821066124198,15.4239634903632
0.266, 7.86,7.86,,,0.06800571,1.605456,1.03597,,,0.07498048,1.643261,1.027881,,44.7499911776726,34.3034971705942,15.5872494032122
0.277, 7.35,7.35,,,0.06762486,1.610039,1.037678,,,0.07425567,1.645382,1.030002,,44.7499911776726,34.1793823915451,15.8249041212222
