経過時間(s),めり込み量(mm),Y軸めり込み量(mm),,デバイス先端,X座標,Y座標,Z座標,,仮想物体との接触位置,X座標,Y座標,Z座標,,接触点の法線と床の法線とのなす角,接触点の法線とデバイスの方向ベクトルのなす角,床の法線とデバイスの方向ベクトルのなす角
0.001, 0.14,0.14,,,0.2468402,1.775117,1.351002,,,0.2470496,1.775777,1.351183,,45.0005634905908,30.7702506565519,22.8723255541275
0.01, 1.23,-1.23,,,0.2471501,1.783193,1.351514,,,0.2453206,1.777506,1.350006,,45.0005634905908,30.3877293378246,22.7893268051905
0.021, 2.67,-2.67,,,0.2469692,1.79219,1.350872,,,0.2429396,1.779887,1.347687,,45.0005634905908,29.9738574516793,22.8137105798489
0.032, 3.97,-3.97,,,0.2464883,1.800781,1.349563,,,0.240366,1.782461,1.344904,,45.0005634905908,29.5605114900854,22.931587688812
0.044, 5.28,-5.28,,,0.2460407,1.809381,1.348038,,,0.237754,1.785073,1.341952,,45.0005634905908,29.1607063781443,23.0765635725531
0.056, 6.43,-6.43,,,0.2461783,1.816449,1.345362,,,0.2359477,1.786879,1.33803,,45.0005634905908,28.8702389313942,23.2037109555093
0.065, 7.7,-7.7,,,0.2466827,1.823929,1.343419,,,0.2342944,1.788532,1.334742,,45.0005634905908,28.6214373449689,23.2816912230933
0.077, 8.95,-8.95,,,0.2476749,1.830881,1.341914,,,0.2330963,1.78973,1.331994,,45.0005634905908,28.3324964454558,23.3371164991183
0.087, 10.33,-10.33,,,0.2489791,1.838276,1.340606,,,0.2320091,1.790817,1.32939,,45.0005634905908,28.0764548587118,23.3393755841235
0.098, 11.63,-11.63,,,0.250672,1.844848,1.339604,,,0.2314429,1.791384,1.327272,,45.0005634905908,27.8583396038263,23.2712085905564
0.109, 12.86,-12.86,,,0.2527789,1.850586,1.339615,,,0.2314361,1.791391,1.326362,,45.0005634905908,27.6749951334904,23.1290638201475
0.121, 14.32,-14.32,,,0.2564428,1.856143,1.33965,,,0.2326533,1.790173,1.325323,,45.0005634905908,27.5343359291846,22.9594172938108
0.132, 15.64,-15.64,,,0.2590665,1.86196,1.339367,,,0.2329592,1.789867,1.324117,,45.0005634905908,27.3490738832926,22.879493837462
0.143, 17.08,-17.08,,,0.261471,1.868884,1.338705,,,0.2326524,1.790174,1.322416,,45.0005634905908,27.0691898143668,22.9345588210183
0.154, 18.44,-18.44,,,0.2630271,1.876319,1.337615,,,0.2313851,1.791442,1.320331,,45.0005634905908,26.6904729109013,23.1361313581945
0.165, 19.8,-19.8,,,0.2650889,1.883219,1.336289,,,0.230544,1.792283,1.318009,,45.0005634905908,26.3065616487165,23.3756404725125
0.176, 21.15,-21.15,,,0.2672631,1.890073,1.334985,,,0.2297327,1.793094,1.315724,,45.0005634905908,25.9267894810536,23.6235268136144
0.187, 22.63,-22.63,,,0.2704832,1.896699,1.334173,,,0.2297461,1.793081,1.313957,,45.0005634905908,25.5714676823917,23.8085105293055
0.199, 24.22,-24.22,,,0.2739168,1.903878,1.335533,,,0.2297292,1.793097,1.314585,,45.0005634905908,25.1887260900697,23.9261263835402
0.209, 25.75,-25.75,,,0.2766963,1.91149,1.336037,,,0.2288983,1.793928,1.314443,,45.0005634905908,24.7278932395928,24.1477540631087
0.221, 27.21,-27.21,,,0.2787775,1.919546,1.33588,,,0.2271849,1.795642,1.313582,,45.0005634905908,24.2045248863627,24.4999151918202
0.232, 28.7,-28.7,,,0.2800572,1.928704,1.333987,,,0.2242685,1.798558,1.310665,,45.0005634905908,23.6288270402628,25.0176298561221
0.243, 30.23,-30.23,,,0.2824669,1.936965,1.332883,,,0.2224237,1.800403,1.308555,,45.0005634905908,23.1094850834365,25.4743833762307
0.254, 31.87,-31.87,,,0.2852029,1.945682,1.332156,,,0.2205986,1.802228,1.306837,,45.0005634905908,22.5982949571576,25.9051753480266
0.265, 33.52,-33.52,,,0.28813,1.954375,1.332261,,,0.2188369,1.80399,1.306295,,45.0005634905908,22.059114716439,26.2885862988686
0.276, 35.16,-35.16,,,0.2909645,1.963233,1.332928,,,0.2168326,1.805994,1.306661,,45.0005634905908,21.4767437757057,26.6578365604079
0.287, 36.69,-36.69,,,0.2929127,1.972339,1.333521,,,0.2139869,1.80884,1.307167,,45.0005634905908,20.8686844942188,27.0530210495041
0.299, 38.17,-38.17,,,0.2941568,1.981964,1.333469,,,0.2101502,1.812676,1.306919,,45.0005634905908,20.1973213137185,27.5702251571797
0.309, 39.54,-39.54,,,0.2945388,1.991801,1.332314,,,0.2054191,1.817408,1.305459,,45.0005634905908,19.5066065002909,28.1630138436547
0.321, 41.01,-41.01,,,0.2951088,2.002169,1.33106,,,0.2005841,1.822242,1.303829,,45.0005634905908,18.8472166410724,28.7362579443636
0.332, 42.52,-42.52,,,0.2960646,2.012341,1.33013,,,0.1961269,1.8267,1.30274,,45.0005634905908,18.228454453454,29.2367297965856
0.343, 44.07,-44.07,,,0.2981741,2.021618,1.329306,,,0.1928365,1.82999,1.302155,,45.0005634905908,17.642830635219,29.6454073240116
0.354, 45.66,-45.66,,,0.3001836,2.031281,1.329472,,,0.1894382,1.833388,1.303147,,45.0005634905908,17.0688437514585,29.9669862815654
0.365, 47.15,-47.15,,,0.3020826,2.040454,1.329385,,,0.1859711,1.836856,1.303903,,45.0005634905908,16.4860664144809,30.3337981656389
0.376, 48.74,-48.74,,,0.3039989,2.050316,1.330072,,,0.1821361,1.840691,1.305571,,45.0005634905908,15.8884726900585,30.7168454089177
0.387, 50.32,-50.32,,,0.3056065,2.060513,1.330108,,,0.1776979,1.845129,1.306709,,45.0005634905908,15.2396525482866,31.1659235041602
0.399, 51.71,-51.71,,,0.3069374,2.069747,1.329761,,,0.1732047,1.849622,1.307469,,45.0005634905908,14.5684635376053,31.6713882245265
0.41, 53.1,-53.1,,,0.3083473,2.078892,1.329521,,,0.1687239,1.854103,1.308086,,45.0005634905908,13.9322066746883,32.1842602848416
0.421, 54.24,-54.24,,,0.3095266,2.086428,1.328165,,,0.1648504,1.857976,1.307392,,45.0005634905908,13.38338220713,32.6468689844533
0.432, 55.3,-55.3,,,0.3102375,2.093737,1.327345,,,0.1608339,1.861993,1.30686,,45.0005634905908,12.8991602282649,33.0877884189592
0.443, 56.35,-56.35,,,0.3109822,2.10093,1.325341,,,0.1569051,1.865921,1.30482,,45.0005634905908,12.4606185532977,33.5150099094658
0.454, 57.14,-57.14,,,0.3111335,2.106807,1.323419,,,0.1531377,1.869689,1.302619,,45.0005634905908,12.0595712007358,33.9371565695604
0.465, 58.1,-58.1,,,0.3111637,2.114067,1.321527,,,0.1485683,1.874258,1.300375,,45.0005634905908,11.6278298326718,34.3948202123506
0.476, 58.88,-58.88,,,0.310317,2.121015,1.320188,,,0.1433546,1.879472,1.298716,,45.0005634905908,11.1513071843343,34.9062681782634
0.488, 59.68,-59.68,,,0.3099122,2.127685,1.31872,,,0.1383237,1.884503,1.297319,,45.0005634905908,10.6140564720025,35.4469937492387
0.499, 60.41,-60.41,,,0.3096398,2.133745,1.317597,,,0.1336447,1.889182,1.296587,,45.0005634905908,10.0757547643414,35.9627925455317
0.509, 65.89,-65.89,,,0.3092493,2.138696,1.316967,,,0.115159,1.873403,1.294599,,45.000515679268,81.209983914905,36.3991664892715
0.521, 71.35,-71.35,,,0.3089482,2.141559,1.316331,,,0.09720258,1.855447,1.292071,,45.000515679268,81.5241794381714,36.7123818804193
0.532, 72.93,-72.93,,,0.3089364,2.142046,1.314898,,,0.0919038,1.850148,1.289282,,45.000515679268,81.6524640475928,36.8516494337204
0.543, 73.95,-73.95,,,0.3091517,2.142756,1.313449,,,0.08883214,1.847076,1.286119,,45.000515679268,81.7137649936878,36.9322115127389
0.554, 73.11,-73.11,,,0.3091648,2.142298,1.31085,,,0.09164991,1.849894,1.282065,,45.000515679268,81.6711719352088,36.9170382479199
0.565, 74.05,-74.05,,,0.3083479,2.142259,1.309021,,,0.0879988,1.846243,1.278765,,45.000515679268,81.6914371059123,36.9547272307113
0.576, 74.72,-74.72,,,0.3074265,2.141833,1.307684,,,0.08502205,1.843266,1.27666,,45.000515679268,81.7115998237811,36.9827822319464
0.588, 71.9,-71.9,,,0.3078413,2.140243,1.306859,,,0.09430914,1.852553,1.277467,,45.000515679268,81.6123161967686,36.8764566800956
0.599, 66.25,-66.25,,,0.3085994,2.137166,1.308596,,,0.1129452,1.871189,1.282358,,45.000515679268,81.3658761481832,36.6164757818574
0.61, 60.11,-60.11,,,0.3123879,2.128654,1.309908,,,0.1377518,1.885075,1.28736,,45.0005634905908,10.2943600852863,35.896293825623
0.621, 59.36,-59.36,,,0.314769,2.120307,1.311833,,,0.1450549,1.877772,1.290341,,45.0005634905908,10.8360154157365,35.2289809471878
0.632, 58.27,-58.27,,,0.3168902,2.109676,1.312893,,,0.1533713,1.869455,1.291962,,45.0005634905908,11.5100748133366,34.4926558392993
0.643, 57.14,-57.14,,,0.3180784,2.099814,1.312806,,,0.1601672,1.862659,1.291711,,45.0005634905908,12.0970271033282,33.926023361523
0.655, 55.61,-55.61,,,0.3177693,2.088823,1.311681,,,0.1659355,1.856891,1.289977,,45.0005634905908,12.5994720263919,33.5129369471104
0.666, 53.95,-53.95,,,0.3166264,2.077933,1.309905,,,0.1705427,1.852284,1.287278,,45.0005634905908,12.9909033266435,33.2684708231402
0.676, 52.3,-52.3,,,0.3155744,2.067058,1.309094,,,0.1751139,1.847713,1.285806,,45.0005634905908,13.3646905412128,33.0294961711099
0.688, 50.46,-50.46,,,0.3142705,2.055243,1.308974,,,0.179665,1.843162,1.285247,,45.0005634905908,13.6871377865407,32.8448932384544
0.699, 48.41,-48.41,,,0.312245,2.042935,1.308419,,,0.1834478,1.839379,1.284518,,45.0005634905908,13.8668673793589,32.8091747651838
0.71, 46.16,-46.16,,,0.3083667,2.031233,1.307882,,,0.185572,1.837255,1.284117,,45.0005634905908,13.9554916426946,32.8613539938961
0.721, 43.89,-43.89,,,0.304852,2.019047,1.30665,,,0.1880465,1.83478,1.282802,,45.0005634905908,14.0638611285977,32.95249262055
0.732, 41.43,-41.43,,,0.3004828,2.00633,1.30431,,,0.190142,1.832685,1.280081,,45.0005634905908,14.2234391026042,33.1016127214547
0.743, 38.9,-38.9,,,0.295935,1.993195,1.3028,,,0.1924139,1.830413,1.278146,,45.0005634905908,14.4771644015104,33.2327318593027
0.754, 36.27,-36.27,,,0.2912636,1.979552,1.300762,,,0.1947157,1.828111,1.275711,,45.0005634905908,14.7592460837404,33.4339731323133
0.766, 33.64,-33.64,,,0.2859194,1.966643,1.298697,,,0.1963158,1.826511,1.273548,,45.0005634905908,15.0541377854023,33.6576037648002
0.776, 31.13,-31.13,,,0.2808768,1.954197,1.296745,,,0.1980793,1.824747,1.272038,,45.0005634905908,15.3558511383079,33.7946515066828
0.787, 28.73,-28.73,,,0.2771985,1.941171,1.295118,,,0.2011757,1.821651,1.271353,,45.0005634905908,15.7011154836969,33.7557365049695
0.799, 26.54,-26.54,,,0.274881,1.928281,1.295331,,,0.20539,1.817437,1.273051,,45.0005634905908,16.0821136702817,33.4363671135508
0.81, 24.48,-24.48,,,0.2734796,1.915349,1.298009,,,0.2102761,1.812551,1.27766,,45.0005634905908,16.4289404213999,32.936308487762
0.821, 22.58,-22.58,,,0.2724485,1.90331,1.301525,,,0.2148684,1.807958,1.283006,,45.0005634905908,16.7279746326781,32.4656948066658
0.832, 20.76,-20.76,,,0.2702482,1.892999,1.304136,,,0.2178696,1.804957,1.287305,,45.0005634905908,16.979972747546,32.077893751857
0.843, 18.99,-18.99,,,0.2675456,1.883539,1.304523,,,0.2199357,1.802891,1.288957,,45.0005634905908,17.198871766617,31.922582084642
0.854, 17.26,-17.26,,,0.2632369,1.87603,1.303745,,,0.2200351,1.802791,1.289067,,45.0005634905908,17.4093969739986,32.0037315599127
0.866, 15.61,-15.61,,,0.2587986,1.869247,1.302687,,,0.2197507,1.803076,1.288871,,45.0005634905908,17.6252326533121,32.1286420559779
0.876, 14.33,-14.33,,,0.2554712,1.863811,1.301069,,,0.2196446,1.803182,1.287904,,45.0005634905908,17.8243770583059,32.2795755720568
0.887, 13.05,-13.05,,,0.2523023,1.858314,1.301054,,,0.2196817,1.803145,1.288771,,45.0005634905908,17.9644300833397,32.3741531988621
0.899, 12.23,-12.23,,,0.2510969,1.853992,1.302202,,,0.2205317,1.802295,1.290584,,45.0005634905908,18.0243803595639,32.403126860515
0.91, 11.62,-11.62,,,0.2503944,1.850529,1.304816,,,0.2214471,1.80138,1.293899,,45.0005634905908,18.0337052750688,32.2777416663157
0.921, 11.02,-11.02,,,0.2508664,1.846007,1.30746,,,0.2235536,1.799273,1.297296,,45.0005634905908,18.0714164559743,32.0353758254568
0.932, 10.53,-10.53,,,0.2527035,1.840865,1.310977,,,0.2268199,1.796007,1.301467,,45.0005634905908,18.1991717257497,31.6667402809257
0.943, 10.15,-10.15,,,0.2554816,1.835417,1.313707,,,0.2308127,1.792014,1.304642,,45.0005634905908,18.4422325383373,31.2833003017805
0.955, 9.87,-9.87,,,0.2586319,1.830268,1.31603,,,0.2349436,1.787883,1.307245,,45.0005634905908,18.7651997318012,30.8861009069353
0.966, 9.56,-9.56,,,0.2609181,1.825853,1.317597,,,0.2381464,1.78468,1.309096,,45.0005634905908,18.9701907785619,30.644380518935
0.976, 9.31,-9.31,,,0.2620869,1.822964,1.318988,,,0.2399766,1.78285,1.310721,,45.0005634905908,19.0338566775912,30.5630261379949
0.988, 9.19,-9.19,,,0.2624748,1.821797,1.319899,,,0.2405601,1.782266,1.311711,,45.0005634905908,18.9365333148159,30.7056063329512
0.999, 9.39,-9.39,,,0.2603831,1.825319,1.318008,,,0.2377535,1.785073,1.309582,,45.0005634905908,18.688325954832,31.0513504991161
1.01, 8.6,-8.6,,,0.2604817,1.820033,1.320629,,,0.2395448,1.783282,1.312857,,45.0005634905908,18.4609199353864,31.3741964567256
1.021, 8.22,-8.22,,,0.2605255,1.817456,1.321173,,,0.2404472,1.782379,1.31373,,45.0005634905908,18.3765380731809,31.4906648392117
1.032, 7.87,-7.87,,,0.2612076,1.814417,1.321475,,,0.2420437,1.780783,1.314311,,45.0005634905908,18.498533786099,31.3995876842586
1.043, 7.46,-7.46,,,0.2632767,1.809509,1.321759,,,0.2452631,1.777564,1.314937,,45.0005634905908,18.7368766456487,31.1779582971428
1.054, 7.09,-7.09,,,0.2665158,1.803663,1.322289,,,0.2496458,1.773181,1.315794,,45.0005634905908,19.125719304277,30.7604834863106
1.066, 6.81,-6.81,,,0.2696362,1.798574,1.323078,,,0.2536534,1.769173,1.316848,,45.0005634905908,19.4780716782799,30.3527587702472
1.077, 6.44,-6.44,,,0.2725723,1.793079,1.324246,,,0.2576523,1.765174,1.318395,,45.0005634905908,19.7751712385296,29.9622700360748
1.087, 6.13,-6.13,,,0.2753537,1.788219,1.325498,,,0.261259,1.761568,1.319967,,45.0005634905908,19.9543578313239,29.6933791563123
1.099, 5.81,-5.81,,,0.277638,1.783745,1.325885,,,0.264364,1.758463,1.32067,,45.0005634905908,20.0781669594162,29.5196737901743
1.11, 5.47,-5.47,,,0.2797225,1.779424,1.326742,,,0.2672642,1.755562,1.321835,,45.0005634905908,20.1800733789969,29.3918058222808
1.121, 5.05,-5.05,,,0.2820592,1.774284,1.327964,,,0.2706158,1.752211,1.323421,,45.0005634905908,20.3330610744115,29.2450728724246
1.133, 4.63,-4.63,,,0.2844006,1.769095,1.3278,,,0.2739772,1.748849,1.323584,,45.0005634905908,20.5392200834877,29.1406631885827
1.144, 4.17,-4.17,,,0.2852413,1.765179,1.327175,,,0.2758693,1.746957,1.323311,,45.0005634905908,20.6532500885079,29.1848784169443
1.154, 3.78,-3.78,,,0.2854186,1.762384,1.326489,,,0.2769187,1.745908,1.322932,,45.0005634905908,20.6849182597134,29.3132791395783
1.166, 3.28,-3.28,,,0.2852823,1.759238,1.325409,,,0.277875,1.744952,1.322279,,45.0005634905908,20.6602305416454,29.4712170144561
1.177, 2.97,-2.97,,,0.2858211,1.756671,1.323951,,,0.2790847,1.743742,1.321085,,45.0005634905908,20.6251250778357,29.6180626624304
1.188, 2.68,-2.68,,,0.2868029,1.753782,1.323487,,,0.280709,1.742118,1.32088,,45.0005634905908,20.6152144736258,29.7066536285948
1.199, 2.32,-2.32,,,0.2883248,1.749882,1.324016,,,0.2830507,1.739776,1.32175,,45.0005634905908,20.6529410224565,29.6961761186996
1.21, 2.17,-2.17,,,0.2908196,1.746341,1.325135,,,0.2859162,1.73691,1.323032,,45.0005634905908,20.6992121377012,29.597589170963
1.221, 2.01,-2.01,,,0.2932153,1.742877,1.326196,,,0.2886872,1.734139,1.324259,,45.0005634905908,20.7383081394224,29.5102173935316
1.233, 1.73,-1.73,,,0.2945569,1.73973,1.326778,,,0.2906449,1.732182,1.325101,,45.0005634905908,20.7492039983926,29.5160059786921
1.243, 1.54,-1.54,,,0.29615,1.736826,1.326692,,,0.29268,1.730147,1.325192,,45.0005634905908,20.7599291026384,29.606977265716
1.255, 1.25,-1.25,,,0.2973052,1.733791,1.326609,,,0.2944754,1.728351,1.325375,,45.0005634905908,20.7929616040927,29.6788137783126
1.266, 1.07,-1.07,,,0.2993137,1.730578,1.326699,,,0.2968963,1.72593,1.325636,,45.0005634905908,20.8464607668253,29.7086856098163
1.277, 1,-1,,,0.3018841,1.727568,1.327303,,,0.2996237,1.723203,1.326304,,45.0005634905908,20.9434682333602,29.6191623228562
1.288, 0.87,-0.87,,,0.3048792,1.723662,1.328662,,,0.3029394,1.719887,1.327805,,45.0005634905908,21.0456222472915,29.4221591821076
1.3, 0.82,-0.82,,,0.3078378,1.720404,1.330051,,,0.3060094,1.716817,1.329246,,45.0005634905908,21.146613421549,29.2156210975431
1.31, 0.87,-0.87,,,0.3113518,1.717197,1.331496,,,0.3094294,1.713397,1.330653,,45.0005634905908,21.2371748972341,29.0142295603749
1.321, 0.72,-0.72,,,0.3140718,1.713506,1.332591,,,0.3124816,1.710345,1.331894,,45.0005634905908,21.3188981083792,28.8810374601715
1.333, 0.76,-0.76,,,0.3180964,1.709749,1.333555,,,0.3164233,1.706403,1.33282,,45.0005634905908,21.4226708770987,28.7411790955236
1.344, 0.71,-0.71,,,0.3214231,1.706048,1.33489,,,0.3198802,1.702946,1.334209,,45.0005634905908,21.5289639855519,28.6323007605415
1.354, 0.83,-0.83,,,0.3251509,1.703111,1.335532,,,0.3233498,1.699477,1.334733,,45.0005634905908,21.6070210927619,28.5689353898273
1.366, 0.82,-0.82,,,0.3275909,1.700657,1.335284,,,0.3257926,1.697034,1.334484,,45.0005634905908,21.6079943946916,28.6216149298824
1.377, 0.71,-0.71,,,0.3288673,1.698603,1.335516,,,0.3273217,1.695505,1.334827,,45.0005634905908,21.5459882315844,28.7487845109528
1.388, 0.66,-0.66,,,0.3302035,1.696964,1.334602,,,0.3287504,1.694076,1.333956,,45.0005634905908,21.4040090932583,28.9466619158908
1.399, 0.63,-0.63,,,0.3312685,1.695693,1.3344,,,0.3298783,1.692948,1.333782,,45.0005634905908,21.2971029753442,29.1041729039573
1.411, 0.71,-0.71,,,0.3333598,1.694121,1.334357,,,0.3317912,1.691035,1.33366,,45.0005634905908,21.2387680388137,29.1888467567417
1.422, 0.72,-0.72,,,0.3361508,1.691427,1.334515,,,0.3345515,1.688275,1.333804,,45.0005634905908,21.2688311156089,29.1475890002083
1.433, 0.84,-0.84,,,0.3392452,1.689136,1.335013,,,0.337381,1.685446,1.334187,,45.0005634905908,21.3222227028652,29.0300824289973
1.443, 0.88,-0.88,,,0.3425806,1.686046,1.335274,,,0.3406419,1.682185,1.334412,,45.0005634905908,21.4252885470253,28.8944553664226
1.455, 0.9,-0.9,,,0.3455353,1.683225,1.335267,,,0.3435559,1.679271,1.334384,,45.0005634905908,21.4935836066358,28.8303437975623
1.466, 0.92,-0.92,,,0.348539,1.680358,1.335045,,,0.3465184,1.676308,1.334137,,45.0005634905908,21.5787253273653,28.7838507011758
1.478, 0.94,-0.94,,,0.3514072,1.677605,1.33446,,,0.3493507,1.673476,1.333534,,45.0005634905908,21.6241614520071,28.7505057185757
1.488, 1.05,-1.05,,,0.3548654,1.674863,1.334408,,,0.3525738,1.670253,1.333372,,45.0005634905908,21.6756474165379,28.7162557359358
1.5, 1.07,-1.07,,,0.3578501,1.672026,1.334419,,,0.3555144,1.667312,1.333359,,45.0005634905908,21.7424722779705,28.6570004314403
1.51, 1.12,-1.12,,,0.3619205,1.668247,1.334643,,,0.3594985,1.663328,1.333539,,45.0005634905908,21.859459754819,28.5201507650381
1.521, 1.07,-1.07,,,0.3653944,1.66446,1.335416,,,0.363085,1.659742,1.334358,,45.0005634905908,21.9755883354033,28.4016657692557
1.533, 1.02,-1.02,,,0.3693971,1.660111,1.336535,,,0.3672097,1.655617,1.335525,,45.0005634905908,22.1010520767759,28.3040606611851
1.544, 1.04,-1.04,,,0.3730345,1.656625,1.336843,,,0.3708022,1.652024,1.335803,,45.0005634905908,22.1926483260914,28.2631802725928
1.555, 1.07,-1.07,,,0.376722,1.653116,1.337355,,,0.3744367,1.64839,1.336285,,45.0005634905908,22.2771121505647,28.2029431284315
1.566, 1.2,-1.2,,,0.3811935,1.64949,1.337323,,,0.3786413,1.644185,1.336121,,45.0005634905908,22.3830961929665,28.1096990960245
1.577, 1.35,-1.35,,,0.3860273,1.645639,1.338378,,,0.3831699,1.639657,1.337029,,45.0005634905908,22.5005208019097,27.9509996550755
1.588, 1.41,-1.41,,,0.3901939,1.641832,1.339408,,,0.3872336,1.635593,1.338006,,45.0005634905908,22.6099250614432,27.8066111675867
1.599, 1.45,-1.45,,,0.3945779,1.637682,1.340256,,,0.39155,1.631276,1.33882,,45.0005634905908,22.677287800258,27.7276336924115
1.611, 1.46,-1.46,,,0.3978609,1.634473,1.340909,,,0.39481,1.628016,1.339458,,45.0005634905908,22.6916858386277,27.725079201733
1.621, 1.45,-1.45,,,0.4008917,1.631412,1.34108,,,0.3978473,1.624979,1.339624,,45.0005634905908,22.7019259994559,27.7900257611961
1.633, 1.36,-1.36,,,0.4039777,1.627701,1.341212,,,0.4011317,1.621695,1.339841,,45.0005634905908,22.7220221229821,27.8512942638935
1.643, 1.26,-1.26,,,0.4071491,1.623918,1.341092,,,0.4044977,1.618329,1.339802,,45.0005634905908,22.7662066154934,27.9273552483741
1.655, 1.27,-1.27,,,0.410947,1.620136,1.341193,,,0.4082884,1.614538,1.339889,,45.0005634905908,22.7979208904745,27.9878297416026
1.666, 1.19,-1.19,,,0.4143096,1.616247,1.341532,,,0.4118223,1.611004,1.340305,,45.0005634905908,22.8441920057191,27.9944225815155
1.677, 1.11,-1.11,,,0.4178212,1.612261,1.341374,,,0.4154897,1.607337,1.340217,,45.0005634905908,22.9038212630613,27.9714150899365
