経過時間(s),めり込み量(mm),Y軸めり込み量(mm),,デバイス先端,X座標,Y座標,Z座標,,仮想物体との接触位置,X座標,Y座標,Z座標,,接触点の法線と床の法線とのなす角,接触点の法線とデバイスの方向ベクトルのなす角,床の法線とデバイスの方向ベクトルのなす角
0.001, 0.02,0.02,,,0.4064771,1.783461,1.316064,,,0.4065081,1.783565,1.316072,,38.8345420870553,22.6071622500009,17.2455646460311
0.011, 0.96,0.96,,,0.4048119,1.779268,1.315321,,,0.4061615,1.783848,1.315717,,38.7694606313599,22.7021650560702,17.1437640943796
0.023, 1.86,1.86,,,0.4037045,1.774847,1.315994,,,0.4062871,1.783733,1.316759,,38.796846274075,22.9066814046967,16.9359009531529
0.033, 2.55,2.55,,,0.4036044,1.770839,1.316854,,,0.4070939,1.783063,1.317898,,38.950945582746,23.2891207611563,16.6651061582122
0.044, 3.43,3.43,,,0.4028906,1.766226,1.31765,,,0.4075091,1.782702,1.319046,,39.0341065486714,23.6052492279041,16.3960411086307
0.056, 4.26,4.26,,,0.4024642,1.761747,1.317945,,,0.4081094,1.7822,1.31969,,39.1489698367471,23.9320276668188,16.189745495775
0.066, 5.12,5.12,,,0.4003472,1.758413,1.318212,,,0.4071017,1.782999,1.320363,,38.9679527533061,23.818229888224,16.1610108907363
0.077, 5.79,5.79,,,0.3986122,1.755854,1.318217,,,0.4062423,1.783682,1.320687,,38.8122825011697,23.6939921657732,16.1553042678436
0.088, 6.28,6.28,,,0.3959762,1.755059,1.319247,,,0.4043052,1.785191,1.321932,,38.4673852784383,23.2031816158633,16.2733999428541
0.099, 6.57,6.57,,,0.3939852,1.754854,1.32024,,,0.4027708,1.786365,1.323073,,38.1975791533525,22.784053899298,16.4067935336324
0.111, 7.13,7.13,,,0.3913362,1.753651,1.319891,,,0.4008865,1.787837,1.32305,,37.8552500816777,22.4363614217266,16.4773647537205
0.122, 7.63,7.63,,,0.3877904,1.753467,1.319908,,,0.3979863,1.790054,1.323391,,37.3349775116028,21.9712631182317,16.4914571411333
0.133, 7.92,7.92,,,0.3852244,1.753753,1.319957,,,0.3957404,1.791744,1.323608,,36.9342230033935,21.6751761334983,16.4148309585146
0.144, 8.04,8.04,,,0.3822322,1.755248,1.320933,,,0.3928319,1.793869,1.324586,,36.4256539621357,21.2541393791131,16.2705978578251
0.155, 8.16,8.16,,,0.3789745,1.756929,1.322297,,,0.38967,1.79612,1.325904,,35.8805673154967,20.7367832997326,16.1489692675647
0.166, 8.06,8.06,,,0.375336,1.760034,1.322962,,,0.3858916,1.79879,1.326436,,35.22330847524,20.081469355788,16.0789205569336
0.177, 8.14,8.14,,,0.3709958,1.762573,1.324161,,,0.3816411,1.80169,1.327582,,34.4979424055698,19.3250344639952,16.031192903889
0.189, 8.08,8.08,,,0.3660492,1.76628,1.32364,,,0.3766044,1.805111,1.327001,,33.6222063104116,18.4848477949304,15.9992942138054
0.199, 8.02,8.02,,,0.3599879,1.770521,1.323567,,,0.3704489,1.809117,1.32688,,32.5713612452801,17.4839262886005,15.9480677964558
0.211, 8.05,8.05,,,0.3538502,1.774216,1.323704,,,0.3643242,1.812936,1.326979,,31.5408974640647,16.4792789141821,15.9005809075727
0.221, 7.89,7.89,,,0.3470705,1.779144,1.324392,,,0.3573184,1.817098,1.327558,,30.3827603753417,15.3308389862634,15.8560070942896
0.233, 7.94,7.94,,,0.3393022,1.783305,1.324201,,,0.3495743,1.821514,1.327371,,29.1075299418409,14.1341121835773,15.789725232881
0.244, 8.02,8.02,,,0.331169,1.787297,1.323068,,,0.3414746,1.82593,1.326278,,27.7778407040559,12.9764173495907,15.6866593887209
0.255, 8.11,8.11,,,0.3225254,1.791256,1.322131,,,0.3328555,1.830357,1.325354,,26.3838401143829,11.7760381033476,15.5458140617654
0.266, 8.21,8.21,,,0.3137415,1.794989,1.321507,,,0.3240488,1.834599,1.324708,,24.9806512129846,10.6261570055541,15.3181109290992
0.277, 8.42,8.42,,,0.3044517,1.798082,1.321104,,,0.3148611,1.838737,1.324305,,23.5372871400064,9.43736005227371,15.0713276635176
0.289, 8.63,8.63,,,0.2947099,1.801066,1.320431,,,0.3051959,1.842802,1.323649,,22.0327382341457,8.25231031142247,14.800170868561
0.3, 8.95,8.95,,,0.2842638,1.803459,1.31938,,,0.2949553,1.846796,1.322691,,20.4522666551312,7.04280507892853,14.5568095276583
0.311, 9.34,9.34,,,0.273933,1.805146,1.317929,,,0.2848858,1.850418,1.321409,,18.9094055117348,5.98739702067157,14.3214728050334
0.322, 9.84,9.84,,,0.2632062,1.806088,1.316147,,,0.2745002,1.853839,1.319877,,17.3304434044849,5.09385334218222,14.0669663032627
0.333, 10.28,10.28,,,0.2524858,1.807045,1.31444,,,0.2640211,1.85697,1.318386,,15.7521062595267,4.39382513919356,13.8058336644078
0.344, 10.78,10.78,,,0.2418951,1.807337,1.312725,,,0.253694,1.859748,1.316904,,14.2090325264983,4.01361370500186,13.5175459017159
0.355, 11.22,11.22,,,0.2315187,1.807571,1.312089,,,0.2434658,1.862195,1.316423,,12.7013938138978,3.79488245244766,13.1847142078176
0.367, 11.62,11.62,,,0.220707,1.807765,1.311858,,,0.2327227,1.864457,1.31628,,11.1315833061074,3.83159856019616,12.8144402717049
0.377, 12.19,12.19,,,0.2104664,1.806762,1.311528,,,0.2226909,1.866294,1.316108,,9.6736760532436,4.19245793457362,12.4577848786446
0.388, 12.7,12.7,,,0.2001051,1.805807,1.310892,,,0.21247,1.867898,1.315655,,8.19201340310751,4.87704649537312,12.1383651145821
0.4, 13.16,13.16,,,0.1897922,1.804824,1.310039,,,0.2022183,1.869238,1.315009,,6.70922889443146,5.75118389942319,11.8325476718732
0.411, 13.53,13.53,,,0.1798006,1.804,1.309896,,,0.1922293,1.870279,1.315024,,5.28082635041374,6.64452224535632,11.565004046887
0.422, 13.94,13.94,,,0.1688123,1.802764,1.309225,,,0.1813453,1.87113,1.314527,,3.7238894681901,7.80348493317229,11.3573526415187
0.433, 14.3,14.3,,,0.1584171,1.801508,1.308691,,,0.1709822,1.871662,1.31422,,2.26087963727143,8.95578562541195,11.174943907073
0.444, 14.61,14.61,,,0.1481229,1.800202,1.30738,,,0.1606472,1.871927,1.31315,,0.824956788382532,10.168696560886,10.9897091819369
0.455, 14.86,14.86,,,0.1377557,1.798934,1.305964,,,0.1501838,1.871921,1.311966,,0.83813462416316,11.4244951067388,10.8189262829087
0.467, 15.05,15.05,,,0.1275522,1.797637,1.305739,,,0.1398099,1.871642,1.311859,,2.29575757041071,12.5721709072654,10.6022957403526
0.477, 15.21,15.21,,,0.1181645,1.796298,1.305622,,,0.1301809,1.871142,1.311721,,3.67055849886107,13.581479031889,10.3219566100861
0.489, 15.32,15.32,,,0.1083239,1.794906,1.306268,,,0.1200295,1.870362,1.312304,,5.13137114336225,14.6216177757945,10.0177707287698
0.5, 15.55,15.55,,,0.09950472,1.792743,1.306442,,,0.1109073,1.869439,1.31244,,6.44375481670619,15.4975229181299,9.65510306185988
0.511, 15.76,15.76,,,0.09076975,1.790538,1.306885,,,0.1018058,1.868306,1.31288,,7.75906565291484,16.3637804185312,9.29576169698322
0.522, 15.9,15.9,,,0.08145232,1.788323,1.3065,,,0.09206494,1.866858,1.312514,,9.16608885165171,17.3665768117361,8.95440336591713
0.533, 16.01,16.01,,,0.07314332,1.786208,1.306025,,,0.08334918,1.865355,1.312063,,10.4303013365541,18.2704174269995,8.65090221104601
0.544, 15.9,15.9,,,0.06404143,1.784792,1.306174,,,0.07374289,1.863465,1.312157,,11.8325809690444,19.3199254826382,8.3774709631591
0.555, 15.74,15.74,,,0.05490559,1.783401,1.305677,,,0.06408154,1.861316,1.311586,,13.248391205904,20.4133243326621,8.11205494204015
0.567, 15.65,15.65,,,0.0458386,1.78138,1.305154,,,0.05452999,1.858942,1.311025,,14.6570886547146,21.4910940027526,7.84372584532126
0.577, 15.42,15.42,,,0.03701275,1.779893,1.304716,,,0.04510043,1.856352,1.31048,,16.0573405748515,22.5271346332701,7.54875815780696
0.589, 15.16,15.16,,,0.02841771,1.778344,1.305147,,,0.03586096,1.853572,1.310749,,17.4396086074042,23.4853059867745,7.21213229393035
0.6, 14.89,14.89,,,0.02019645,1.776696,1.305481,,,0.02694237,1.850655,1.31083,,18.7837488175235,24.352234553243,6.79774430163025
0.611, 14.56,14.56,,,0.0118586,1.775104,1.305603,,,0.01792139,1.847466,1.310715,,20.1542194061606,25.2738336598543,6.41844853964868
0.622, 14.14,14.14,,,0.003260393,1.773613,1.305473,,,0.008670416,1.843938,1.310348,,21.5722349402871,26.2849765439927,6.0825069753305
0.633, 13.6,13.6,,,-0.006024074,1.772156,1.304527,,,-0.001262236,1.839849,1.309173,,23.1110765174688,27.4546225011469,5.7900066935852
0.645, 13.23,13.23,,,-0.01440572,1.769996,1.304088,,,-0.01024821,1.835879,1.308591,,24.5188160322749,28.4475321958033,5.50110506765871
0.656, 12.69,12.69,,,-0.0229574,1.768298,1.302643,,,-0.01950017,1.831497,1.306998,,25.9876789082626,29.4628568631446,5.2258100319539
0.666, 12.44,12.44,,,-0.0306507,1.765318,1.301641,,,-0.0278174,1.827307,1.305971,,27.3240190425669,30.3040526926313,4.98342241986765
0.678, 12.03,12.03,,,-0.03838357,1.76281,1.300285,,,-0.036266,1.822786,1.304494,,28.7009014711089,31.1089768035399,4.7162561628226
0.689, 11.61,11.61,,,-0.04561726,1.760417,1.299855,,,-0.04415188,1.818338,1.303813,,29.9998429056535,31.8236672878344,4.40224206645091
0.7, 11.01,11.01,,,-0.05377257,1.7582,1.300371,,,-0.05288693,1.81315,1.303894,,31.4543999508226,32.7059467040354,4.02496590597334
0.711, 10.45,10.45,,,-0.06210614,1.755458,1.30149,,,-0.06171627,1.807608,1.304624,,32.9449452617271,33.6494007078352,3.71372742764838
0.723, 9.88,9.88,,,-0.07011011,1.752627,1.302053,,,-0.07020696,1.801958,1.304889,,34.4048674203401,34.5389713507723,3.54171338705656
0.734, 9.6,9.6,,,-0.07758112,1.748404,1.300719,,,-0.0781974,1.79631,1.303482,,35.8102778407041,35.3368228009922,3.62568842613094
0.744, 9.19,9.19,,,-0.08472461,1.74474,1.299717,,,-0.08585157,1.790619,1.3024,,37.1797034104272,36.0529407947836,3.86168426199239
0.756, 9.02,9.02,,,-0.09083249,1.740431,1.298418,,,-0.09250806,1.785418,1.301056,,38.3942612752191,36.5594846850088,4.18675515366218
0.767, 8.57,8.57,,,-0.09819984,1.736385,1.298872,,,-0.1002613,1.779126,1.30127,,39.8232631683198,37.333041153027,4.42310402491653
0.778, 7.94,7.94,,,-0.1055078,1.733161,1.300822,,,-0.1077949,1.772738,1.302859,,41.232689739804,38.1393586224875,4.59473984379358
0.789, 7.48,7.48,,,-0.1127936,1.728758,1.302302,,,-0.1153027,1.766025,1.304041,,42.6723330673354,38.9889043580021,4.83002320556706
経過時間(s),めり込み量(mm),Y軸めり込み量(mm),,デバイス先端,X座標,Y座標,Z座標,,仮想物体との接触位置,X座標,Y座標,Z座標,,接触点の法線と床の法線とのなす角,接触点の法線とデバイスの方向ベクトルのなす角,床の法線とデバイスの方向ベクトルのなす角
0, 0.45,-0.45,,,0.4170872,1.777406,1.319621,,,0.4163972,1.775274,1.319477,,40.6944332821449,22.8590459592033,18.3579172704743
0.011, 1.1,1.1,,,0.4170654,1.767982,1.319964,,,0.4187248,1.773236,1.320321,,41.1410388489766,23.696304184743,17.9581070358915
0.023, 2.44,2.44,,,0.4167607,1.760074,1.32228,,,0.4203556,1.771716,1.323046,,41.4735358636148,24.3324321278429,17.5764668115426
0.033, 3.59,3.59,,,0.4161076,1.753551,1.325367,,,0.4213415,1.770698,1.326408,,41.6963297979516,24.6687352652902,17.3369423292993
0.044, 4.66,4.66,,,0.4156942,1.747235,1.328923,,,0.4224445,1.769506,1.330178,,41.9559726018353,24.98188747719,17.1816084639702
0.055, 5.56,5.56,,,0.4151602,1.742069,1.331505,,,0.4231801,1.76866,1.332967,,42.1394929495374,25.2119623929795,17.0904134882572
0.067, 6.32,6.32,,,0.4152339,1.737299,1.332665,,,0.4243029,1.767538,1.334396,,42.3797038657731,25.5236461142486,17.0276423439843
0.077, 7.02,7.02,,,0.4141305,1.733992,1.333239,,,0.4241906,1.767572,1.335279,,42.3733961862501,25.5212760386725,17.0490071751135
0.088, 7.54,7.54,,,0.4130677,1.731703,1.33433,,,0.4239031,1.767726,1.336584,,42.341758750895,25.4093872978976,17.1311197070304
0.1, 7.4,7.4,,,0.4127012,1.732826,1.333972,,,0.4234354,1.768181,1.336214,,42.2447188409625,25.1680562306691,17.284790421343
0.111, 7.64,7.64,,,0.4116034,1.732198,1.335494,,,0.4227907,1.768623,1.337844,,42.1517667991344,24.8696725948912,17.4766726279038
0.122, 7.76,7.76,,,0.4106642,1.732086,1.336968,,,0.4221396,1.769068,1.339405,,42.0582615119989,24.5899029316309,17.6533849847402
0.134, 7.66,7.66,,,0.4102495,1.732925,1.338076,,,0.4216306,1.76942,1.340505,,41.9840446785428,24.4199114807508,17.7403076772463
0.144, 7.43,7.43,,,0.4102632,1.734207,1.339167,,,0.4213109,1.769609,1.341488,,41.9444261673647,24.3601097611369,17.7390970262496
0.155, 7.19,7.19,,,0.4102249,1.735573,1.340617,,,0.4209231,1.769822,1.34279,,41.899883089932,24.291804456243,17.7304534220954
0.166, 6.92,6.92,,,0.409543,1.737635,1.342499,,,0.419852,1.770592,1.344484,,41.736061007248,24.1000673911979,17.7178892894668
0.177, 6.57,6.57,,,0.4087631,1.740272,1.343739,,,0.4185789,1.771593,1.345573,,41.5213198657185,23.8525481727537,17.7306207617254
0.188, 6.47,6.47,,,0.4071121,1.742331,1.343565,,,0.4168099,1.773157,1.34538,,41.1820336432342,23.4493911455707,17.7955912268499
0.2, 6.3,6.3,,,0.4061761,1.744254,1.342898,,,0.4156345,1.774245,1.344712,,40.9441415761572,23.1688769917116,17.8514894934618
0.211, 6.19,6.19,,,0.402532,1.748103,1.341791,,,0.4118645,1.777558,1.343651,,40.2136050534292,22.3582496730047,17.9547841489528
0.222, 6.24,6.24,,,0.3981361,1.751604,1.340173,,,0.4075288,1.781291,1.342151,,39.3767873750787,21.5463604768838,17.9707292251264
0.233, 6.37,6.37,,,0.3947641,1.753734,1.338581,,,0.4043001,1.784033,1.340653,,38.7520812155004,21.0196743593567,17.9072631091248
0.244, 6.43,6.43,,,0.3910784,1.756399,1.337691,,,0.400628,1.787002,1.339774,,38.0666785815519,20.483079345167,17.7674781690085
0.256, 6.62,6.62,,,0.3869841,1.758415,1.337979,,,0.3967328,1.789965,1.340076,,37.3732573057409,19.9436088214167,17.5940886991108
0.266, 6.68,6.68,,,0.3829857,1.761052,1.338112,,,0.3927419,1.792943,1.34015,,36.6646866707724,19.3959813444772,17.4082904833839
0.278, 6.82,6.82,,,0.3780563,1.763829,1.338498,,,0.3879516,1.796392,1.340531,,35.8295765396669,18.6620246046174,17.2874097988168
0.289, 7.04,7.04,,,0.3721214,1.766745,1.338237,,,0.3823041,1.800378,1.340336,,34.8422385716709,17.7299599409416,17.2299491264757
0.3, 7.23,7.23,,,0.3654489,1.770242,1.337227,,,0.3758693,1.804801,1.339431,,33.7162955787048,16.6705703093962,17.1824417470257
0.311, 7.56,7.56,,,0.3583847,1.773016,1.336308,,,0.3692169,1.809169,1.338653,,32.5710197358311,15.6271718578,17.0980342716116
0.322, 8.04,8.04,,,0.3510486,1.774953,1.335135,,,0.3624589,1.813428,1.337692,,31.4185721945283,14.6415311917655,16.9611111806779
0.333, 8.45,8.45,,,0.3433635,1.777318,1.333671,,,0.3552107,1.817803,1.336452,,30.1935368198412,13.6382694919364,16.7887940504501
0.344, 9.02,9.02,,,0.3355698,1.778726,1.332255,,,0.3479778,1.821949,1.335376,,28.9895418423069,12.7493775990292,16.552030672102
0.356, 9.69,9.69,,,0.3273636,1.779475,1.33182,,,0.3404395,1.825989,1.335304,,27.7717447603913,11.8493072480827,16.2869339623178
0.366, 10.31,10.31,,,0.3193264,1.780222,1.331435,,,0.3329597,1.829798,1.335213,,26.5770234719444,10.9802459551052,15.9950065626732
0.377, 10.93,10.93,,,0.3105759,1.781057,1.331812,,,0.324749,1.833706,1.335867,,25.298275491119,9.98595570850119,15.7130239181834
0.39, 11.45,11.45,,,0.3010319,1.782626,1.331682,,,0.3155989,1.837835,1.335956,,23.8766826455143,8.83966814388476,15.4468924347688
0.4, 11.95,11.95,,,0.290405,1.784437,1.331951,,,0.3053828,1.842098,1.336457,,22.3210610015561,7.47745439995082,15.2505364544261
0.411, 12.34,12.34,,,0.2801085,1.786398,1.331538,,,0.2953929,1.845996,1.336248,,20.8016086233413,6.13951344010437,15.0973489759839
0.422, 12.72,12.72,,,0.2682123,1.788573,1.332405,,,0.2838482,1.850035,1.337317,,19.108169133693,4.50267359209884,15.0076002927874
0.433, 13.01,13.01,,,0.2571484,1.790625,1.33259,,,0.2729827,1.853519,1.337688,,17.5205804977614,3.04748176624134,14.8933602594561
0.444, 13.32,13.32,,,0.2451769,1.792488,1.333104,,,0.261159,1.856903,1.338435,,15.8332796404589,1.58510863700164,14.7382261771546
0.455, 13.55,13.55,,,0.2344579,1.794028,1.333736,,,0.2503754,1.859638,1.339251,,14.3294103384017,0.749649045680304,14.4838289584076
0.466, 13.9,13.9,,,0.2239199,1.794606,1.334288,,,0.239756,1.862028,1.339945,,12.8757173121385,1.24080446677284,14.0907063326097
0.478, 14.21,14.21,,,0.2129444,1.795117,1.335485,,,0.2285973,1.86417,1.341256,,11.4220635594619,2.28610352517437,13.6706599556265
0.489, 14.59,14.59,,,0.2028762,1.794871,1.335842,,,0.2183336,1.865898,1.341788,,10.0978478643707,3.26260817311797,13.2173146998189
0.5, 14.81,14.81,,,0.1912282,1.795382,1.335467,,,0.2063686,1.867623,1.341655,,8.57352129254496,4.56085100739596,12.8541518442079
0.511, 15.05,15.05,,,0.1796933,1.795515,1.334607,,,0.1946016,1.868991,1.341128,,7.13765036376448,5.91171681922653,12.5894171344397
0.522, 14.92,14.92,,,0.1668889,1.797213,1.33377,,,0.1813272,1.870116,1.340454,,5.69171515152205,7.57279273905377,12.4182876033208
0.533, 14.52,14.52,,,0.1536059,1.799828,1.333282,,,0.1674228,1.87081,1.339833,,4.57607208353777,9.3801623422084,12.2662032003989
0.544, 14.07,14.07,,,0.1403777,1.802139,1.333959,,,0.1536582,1.870944,1.340275,,4.33169261759024,11.2389222872482,12.1740767576638
0.555, 13.58,13.58,,,0.1276626,1.804195,1.334463,,,0.1402928,1.87063,1.340575,,4.89524937589148,12.9827882083617,12.036599567649
0.566, 13.23,13.23,,,0.1151909,1.805197,1.33364,,,0.1271628,1.869964,1.339724,,5.90235903343719,14.5880149535604,11.8293827330546
0.578, 12.88,12.88,,,0.1035631,1.805786,1.332771,,,0.1147476,1.868934,1.33891,,7.19208398172697,15.9651979104175,11.5445109186263
0.588, 12.44,12.44,,,0.09148525,1.80636,1.332493,,,0.1017949,1.867409,1.338518,,8.76443531981791,17.3815246803187,11.1952082240029
0.6, 11.92,11.92,,,0.0800637,1.806975,1.332367,,,0.08946814,1.865558,1.338113,,10.3590189230386,18.6988956722784,10.7867671918703
0.612, 11.36,11.36,,,0.0690861,1.807435,1.332603,,,0.07753147,1.863369,1.337994,,11.9775508763702,19.8932669135401,10.2925253257716
0.622, 11.06,11.06,,,0.0585711,1.806484,1.331717,,,0.06622256,1.861006,1.336956,,13.5086307975498,20.9606973850622,9.79598936994922
0.633, 10.51,10.51,,,0.04727215,1.806229,1.330715,,,0.0540233,1.858072,1.335777,,15.2014342258493,22.2081852984736,9.39653345141971
0.645, 10.04,10.04,,,0.03661945,1.805377,1.329327,,,0.04257753,1.854962,1.3343,,16.8129677967973,23.3701046043442,9.05733516761853
0.656, 9.58,9.58,,,0.0253313,1.803974,1.327448,,,0.03055447,1.851315,1.332316,,18.5300021742768,24.6549041326058,8.74877711158138
0.666, 9.25,9.25,,,0.01539428,1.801955,1.326266,,,0.01998457,1.847727,1.331083,,20.0821352992135,25.7145396509546,8.4543566929591
0.678, 8.68,8.68,,,0.004958333,1.80055,1.325703,,,0.008825049,1.843545,1.330323,,21.7586751937782,26.8526011067183,8.16974186439115
0.689, 8.11,8.11,,,-0.005748151,1.798688,1.32515,,,-0.002516925,1.838899,1.329497,,23.4875514114016,28.0730517170526,7.87367366267746
0.7, 7.61,7.61,,,-0.01633297,1.796211,1.324183,,,-0.01367591,1.83394,1.328258,,25.2085148550918,29.2700303829573,7.55816332803235
0.711, 7.28,7.28,,,-0.02577432,1.792978,1.324022,,,-0.02363033,1.829127,1.327915,,26.7808311884643,30.2157929906324,7.22911385128174
0.722, 7.17,7.17,,,-0.03430726,1.78888,1.323186,,,-0.03266986,1.824482,1.327018,,28.2205564782635,30.9224989840094,6.90569287713742
0.733, 7.06,7.06,,,-0.04232581,1.78469,1.323164,,,-0.04122217,1.819781,1.326919,,29.6132507942941,31.482198819971,6.60464674831778
0.745, 7.35,7.35,,,-0.04880819,1.779089,1.323895,,,-0.04827181,1.815657,1.327716,,30.7883984686716,31.6602208655443,6.27144835864867
0.755, 7.77,7.77,,,-0.05488641,1.772878,1.325157,,,-0.05500161,1.811508,1.32905,,31.9321204435525,31.7385563029553,6.00704149795151
0.767, 8.19,8.19,,,-0.06044852,1.766812,1.324814,,,-0.06127518,1.807545,1.328809,,32.9894132070811,31.8019916831066,5.96456668711929
0.778, 8.54,8.54,,,-0.06606364,1.760868,1.324274,,,-0.06765635,1.803352,1.328403,,34.0762226322865,31.9141331408738,6.18148836648062
0.789, 8.87,8.87,,,-0.07227494,1.754562,1.322484,,,-0.07461715,1.798629,1.3268,,35.2637807600407,32.2527602501215,6.57959916466789
0.8, 9.32,9.32,,,-0.07797146,1.747761,1.319983,,,-0.08114181,1.794022,1.324633,,36.3888563190063,32.5700805848463,7.14424363056419
0.811, 9.65,9.65,,,-0.08407037,1.741018,1.317434,,,-0.08810991,1.788862,1.322368,,37.6145917880638,32.9639605078473,7.78701734754164
0.822, 9.98,9.98,,,-0.08974298,1.734409,1.314624,,,-0.09467516,1.783776,1.319794,,38.7899887643391,33.3367283167113,8.41832232344815
0.833, 9.99,9.99,,,-0.09612808,1.728607,1.314157,,,-0.1017338,1.777988,1.319204,,40.0943533689338,33.8617615285052,8.85359148412038
0.845, 9.72,9.72,,,-0.1030591,1.723657,1.315173,,,-0.1090237,1.771688,1.31979,,41.4763567316635,34.5802700884396,9.07995504597286
