経過時間(s),めり込み量(mm),Y軸めり込み量(mm),,デバイス先端,X座標,Y座標,Z座標,,仮想物体との接触位置,X座標,Y座標,Z座標,,接触点の法線と床の法線とのなす角,接触点の法線とデバイスの方向ベクトルのなす角,床の法線とデバイスの方向ベクトルのなす角
0.001, 0.36,-0.36,,,0.4358799,1.592224,1.283786,,,0.4353201,1.590533,1.283738,,45.0005395849294,26.7254639690456,18.4040432442032
0.01, 0.74,0.74,,,0.4340106,1.587197,1.28487,,,0.4351647,1.590689,1.284976,,45.0005395849294,26.7579159044365,18.3844440169252
0.022, 1.93,1.93,,,0.4317616,1.581932,1.284858,,,0.4347746,1.591079,1.285162,,45.0005395849294,26.8238118601678,18.3458124680546
0.033, 3.15,3.15,,,0.4293122,1.576669,1.284294,,,0.4342306,1.591623,1.284859,,45.0005395849294,26.8665773809185,18.3478632322959
0.044, 4.17,4.17,,,0.4277249,1.571848,1.283566,,,0.4342103,1.591643,1.284412,,45.0005395849294,26.9527948564124,18.3172998441579
0.055, 5.28,5.28,,,0.4254948,1.567116,1.28252,,,0.4336758,1.592178,1.283693,,45.0005395849294,27.0333193693914,18.2879693051307
0.068, 6.29,6.29,,,0.4223321,1.563931,1.281547,,,0.4320673,1.593786,1.283008,,45.0005395849294,27.0615041442172,18.2874041069926
0.077, 7.09,7.09,,,0.4195202,1.561699,1.281548,,,0.4305077,1.595346,1.283174,,45.0005395849294,27.0339118882854,18.3071792116368
0.089, 7.89,7.89,,,0.4162681,1.559906,1.281781,,,0.4284988,1.597355,1.283612,,45.0005395849294,27.0342209543368,18.3141374666601
0.099, 8.61,8.61,,,0.4129005,1.558709,1.280384,,,0.4262751,1.599578,1.28246,,45.0005395849294,27.0103170004542,18.3634685065678
0.11, 9.36,9.36,,,0.4093157,1.557556,1.279179,,,0.4239002,1.601953,1.281568,,45.0005395849294,26.9618431492635,18.4536184633669
0.121, 9.72,9.72,,,0.4061298,1.558426,1.277709,,,0.4213522,1.604501,1.280282,,45.0005395849294,26.8764606643725,18.5676296853673
0.132, 9.99,9.99,,,0.401158,1.561589,1.276328,,,0.4169586,1.608895,1.278975,,45.0005395849294,26.6908451562007,18.7522650614205
0.144, 10.05,10.05,,,0.3967467,1.565498,1.275467,,,0.4128008,1.613052,1.278055,,45.0005395849294,26.4987597515177,18.9194151536849
0.155, 9.93,9.93,,,0.3914609,1.57145,1.274251,,,0.4075044,1.618349,1.2767,,45.0005395849294,26.2568908069071,19.1276488326638
0.166, 9.73,9.73,,,0.3852035,1.578811,1.273447,,,0.4011531,1.6247,1.275762,,45.0005395849294,25.9679379545633,19.3892348253122
0.177, 9.45,9.45,,,0.3788946,1.586764,1.271705,,,0.3946055,1.631248,1.273907,,45.0005395849294,25.6778051870732,19.6641311487353
0.188, 8.95,8.95,,,0.3720165,1.59663,1.270414,,,0.3871215,1.638732,1.272407,,45.0005395849294,25.3836204099707,19.9283040754599
0.199, 8.54,8.54,,,0.3646045,1.606557,1.269579,,,0.3792014,1.646652,1.271334,,45.0005395849294,25.0991652370702,20.1683186237625
0.211, 7.89,7.89,,,0.3570449,1.618191,1.268836,,,0.3706543,1.655199,1.270244,,45.0005395849294,24.88799457683,20.3170152529504
0.222, 7.31,7.31,,,0.3501202,1.628812,1.268607,,,0.3627822,1.663071,1.269728,,45.0005395849294,24.7745502605148,20.3804284349874
0.233, 6.63,6.63,,,0.3427835,1.64045,1.267968,,,0.3543097,1.671544,1.268854,,45.0005395849294,24.70484476688,20.4150865214189
0.243, 6.09,6.09,,,0.3344655,1.652256,1.266993,,,0.34509,1.680763,1.267701,,45.0005395849294,24.5934153563139,20.5002197044122
0.256, 5.46,5.46,,,0.3259634,1.664773,1.265301,,,0.3355393,1.690314,1.265841,,45.0005395849294,24.4721555962584,20.5978931143727
0.266, 5,5,,,0.3165218,1.677143,1.264334,,,0.3253229,1.70053,1.264735,,45.0005395849294,24.3936613569536,20.6549354376387
0.277, 4.51,4.51,,,0.3088189,1.687983,1.263458,,,0.3167621,1.709091,1.263736,,45.0005395849294,24.3877071397104,20.6434692578886
0.289, 4.02,4.02,,,0.2994741,1.700526,1.262545,,,0.3065304,1.719323,1.262712,,45.0005395849294,24.4288965943539,20.588242057344
0.3, 3.62,3.62,,,0.2899957,1.712567,1.262322,,,0.2963457,1.729508,1.262396,,45.0005395849294,24.4531966991973,20.5535344520424
0.311, 3.3,3.3,,,0.2806744,1.723934,1.262245,,,0.2864561,1.739397,1.262238,,45.0005395849294,24.4995275785956,20.501633553531
0.321, 2.99,2.99,,,0.2714718,1.735166,1.261915,,,0.2766901,1.749163,1.261854,,45.0005395849294,24.5545976847936,20.4462458435454
0.333, 2.99,2.99,,,0.2614989,1.745152,1.261654,,,0.266706,1.759147,1.261558,,45.0005395849294,24.5938012619912,20.4088095777463
0.345, 2.82,2.82,,,0.2518969,1.755804,1.260974,,,0.2568186,1.769035,1.260864,,45.0005395849294,24.5989290263679,20.4054303417485
0.355, 2.97,2.97,,,0.2415742,1.765204,1.260472,,,0.2467471,1.779106,1.260351,,45.0005395849294,24.5940317808693,20.4108859551962
0.368, 3.01,3.01,,,0.2319191,1.774568,1.25997,,,0.2371699,1.788683,1.25984,,45.0005395849294,24.6004060547349,20.4052254360791
0.378, 3.23,3.23,,,0.2217523,1.783315,1.259099,,,0.2273849,1.798468,1.258944,,45.0005395849294,24.615176338404,20.3921644072022
0.389, 3.46,3.46,,,0.2121203,1.791512,1.258875,,,0.2181418,1.807712,1.258692,,45.0005395849294,24.61670971583,20.3928593789309
0.4, 3.56,3.56,,,0.2034191,1.799561,1.258918,,,0.2096056,1.816248,1.258699,,45.0005395849294,24.6680488312977,20.3457737636504
0.411, 3.73,3.73,,,0.1950464,1.806834,1.259185,,,0.2015055,1.824348,1.258914,,45.0005395849294,24.7681281753264,20.2522753067039
0.422, 3.85,3.85,,,0.1886983,1.812465,1.260512,,,0.1952942,1.830559,1.260173,,45.0005395849294,24.9906113360646,20.0415366559167
0.433, 3.96,3.96,,,0.1816301,1.818889,1.262881,,,0.1883476,1.837506,1.26245,,45.0005395849294,25.1877954768212,19.8640302896114
0.444, 3.96,3.96,,,0.1763037,1.824229,1.264925,,,0.1829732,1.84288,1.2644,,45.0005395849294,25.3661351261821,19.7143876792498
0.455, 4,4,,,0.1706319,1.829668,1.267055,,,0.1773326,1.848521,1.266457,,45.0005395849294,25.4866708862056,19.6180256655735
0.466, 4.17,4.17,,,0.1655015,1.833746,1.269052,,,0.1724509,1.853403,1.268403,,45.0005395849294,25.5871446736479,19.5274590672466
0.477, 4.39,4.39,,,0.1601042,1.83778,1.270184,,,0.1673898,1.858464,1.269519,,45.0005395849294,25.6498748367869,19.4582453472183
0.489, 4.54,4.54,,,0.1551202,1.841805,1.270755,,,0.1626451,1.863208,1.270121,,45.0005395849294,25.6758346775525,19.4147507037941
0.5, 4.67,4.67,,,0.1507893,1.845305,1.271771,,,0.1585191,1.867334,1.271148,,45.0005395849294,25.7071869525177,19.3748384944897
0.511, 4.77,4.77,,,0.1473934,1.848099,1.273258,,,0.1552547,1.870599,1.272627,,45.0005395849294,25.7816667482495,19.2987228684972
0.522, 4.56,4.56,,,0.1451483,1.850147,1.275005,,,0.1526122,1.871682,1.274364,,45.0005259245515,64.1266635779034,19.1611474945159
0.533, 3.29,3.29,,,0.143197,1.852045,1.277509,,,0.1485304,1.867601,1.277013,,45.0005259245515,63.9378156827969,18.9794012884013
0.544, 3.14,3.14,,,0.1431632,1.852365,1.280339,,,0.1481795,1.86725,1.279821,,45.0005259245515,63.6396847640113,18.6924291908617
0.556, 3.13,3.13,,,0.1427819,1.851895,1.283053,,,0.1476927,1.866763,1.282497,,45.0005259245515,63.296474597958,18.3609652423066
0.566, 4.12,4.12,,,0.1441072,1.849888,1.285022,,,0.1504245,1.869495,1.284248,,45.0005259245515,62.8798330701813,17.9554039886027
0.577, 4.8,4.8,,,0.1446138,1.848014,1.287521,,,0.1518183,1.870888,1.28658,,45.0005259245515,62.5051493933085,17.5908563121761
0.589, 5.56,5.56,,,0.1456198,1.845502,1.289567,,,0.1537984,1.872055,1.288463,,45.0005395849294,27.9656043066618,17.2341684757181
0.6, 5.98,5.98,,,0.1461701,1.84245,1.290739,,,0.1548151,1.871038,1.289604,,45.0005395849294,28.2515587060435,16.9309285755755
0.611, 6.44,6.44,,,0.1461929,1.839626,1.29091,,,0.1553919,1.870461,1.289773,,45.0005395849294,28.4546287621535,16.7021018768221
0.622, 6.97,6.97,,,0.1453692,1.837177,1.289932,,,0.1552755,1.870578,1.288831,,45.0005395849294,28.5330939731551,16.5898579662202
0.633, 7.5,7.5,,,0.1443071,1.834966,1.289953,,,0.1549369,1.870916,1.288873,,45.0005395849294,28.5718774937305,16.528507501255
0.644, 8.21,8.21,,,0.1421338,1.832783,1.289734,,,0.1537251,1.872128,1.288633,,45.0005395849294,28.6222996563277,16.463463611599
0.655, 8.64,8.64,,,0.1405541,1.830253,1.290099,,,0.1526501,1.87172,1.289028,,45.0005259245515,61.2714191880499,16.3018323120304
0.666, 9.33,9.33,,,0.1393201,1.826259,1.290027,,,0.1520618,1.871132,1.288938,,45.0005259245515,60.8606243020401,15.8873627843493
0.678, 10.04,10.04,,,0.1379039,1.821785,1.289677,,,0.1511196,1.87019,1.288527,,45.0005259245515,60.2797645406186,15.3064586266994
0.689, 11.28,11.28,,,0.1376657,1.816286,1.290725,,,0.1517856,1.870856,1.289338,,45.0005259245515,59.5171466202517,14.5514427066673
0.7, 12.02,12.02,,,0.1359351,1.810984,1.291068,,,0.1502442,1.869314,1.289493,,45.0005259245515,58.795018060158,13.8379970243143
0.711, 12.8,12.8,,,0.1337914,1.804932,1.29094,,,0.1482139,1.867284,1.289226,,45.0005259245515,58.0366143663918,13.0851377364526
0.722, 13.41,13.41,,,0.1304833,1.798378,1.289124,,,0.1448107,1.863881,1.287455,,45.0005259245515,57.3493744116077,12.3923755738782
0.733, 13.7,13.7,,,0.1259445,1.79185,1.28634,,,0.1398593,1.85893,1.284995,,45.0005259245515,56.7263348181405,11.750743352234
0.744, 13.64,13.64,,,0.1201857,1.785609,1.282619,,,0.133424,1.852494,1.281689,,45.0005259245515,56.1991842477628,11.2077074698362
0.755, 13.28,13.28,,,0.1139644,1.78019,1.278584,,,0.126347,1.845417,1.278133,,45.0005259245515,55.7499319827014,10.7497526902407
0.767, 13.04,13.04,,,0.1071302,1.773727,1.275826,,,0.1188157,1.837886,1.275739,,45.0005259245515,55.3223826431238,10.3237862469591
0.777, 12.59,12.59,,,0.1005819,1.768423,1.2726,,,0.1113502,1.83042,1.272833,,45.0005259245515,54.8535618866348,9.86410086823086
0.788, 12.18,12.18,,,0.09431157,1.763165,1.270116,,,0.1042077,1.823278,1.270535,,45.0005259245515,54.3494222229305,9.37055995027622
0.8, 11.6,11.6,,,0.08804975,1.758751,1.268843,,,0.09696706,1.816037,1.269246,,45.0005259245515,53.8487454650391,8.87139181037574
0.811, 11.05,11.05,,,0.08194894,1.754266,1.268915,,,0.08986153,1.808932,1.269114,,45.0005259245515,53.2363131550578,8.24866896692253
0.822, 10.83,10.83,,,0.07694087,1.749363,1.26888,,,0.08397767,1.803048,1.268916,,45.0005259245515,52.4675719702705,7.47307027239932
0.833, 10.62,10.62,,,0.07238525,1.744829,1.268649,,,0.07851745,1.797588,1.26863,,45.0005259245515,51.6298766126361,6.63379970243143
0.844, 10.39,10.39,,,0.0676249,1.740187,1.267563,,,0.07281303,1.791883,1.267515,,45.0005259245515,50.7309042145681,5.73422155197831
0.855, 10.11,10.11,,,0.06335697,1.736312,1.267214,,,0.06763014,1.7867,1.267112,,45.0005259245515,49.8474226851067,4.84912980546483
0.867, 9.52,9.52,,,0.05773028,1.732638,1.266668,,,0.06104112,1.780111,1.266468,,45.0005259245515,48.9898617228241,3.98933964025395
0.878, 8.91,8.91,,,0.05259816,1.729655,1.265877,,,0.05505055,1.774121,1.265626,,45.0005259245515,48.1576373465627,3.15758910835298
0.889, 8.37,8.37,,,0.04777119,1.726738,1.263809,,,0.04950125,1.768571,1.263578,,45.0005259245515,47.3689929910877,2.36909885901693
0.9, 7.29,7.29,,,0.04149361,1.72517,1.262286,,,0.0425213,1.761591,1.262093,,45.0005259245515,46.6170643164745,1.61701042201461
0.911, 6.05,6.05,,,0.03535474,1.724708,1.262174,,,0.03590035,1.754971,1.261967,,45.0005259245515,46.0341418379811,1.04248928940991
0.922, 4.69,4.69,,,0.02866791,1.724535,1.262107,,,0.02888864,1.747959,1.261879,,45.0005259245515,45.5425697219999,0.62118114173439
0.933, 3.24,3.24,,,0.02164863,1.724572,1.263864,,,0.02168058,1.740751,1.263644,,45.0005259245515,45.1184559674792,0.540679093673765
0.944, 2.17,2.17,,,0.01566077,1.723802,1.264321,,,0.01558957,1.73466,1.26415,,45.0005259245515,44.6315317950989,0.755887622900713
0.955, 1.5,1.5,,,0.009975508,1.72141,1.264139,,,0.00984478,1.728915,1.264026,,45.0005259245515,44.0088917676871,1.16902099486256
0.967, 1.16,1.16,,,0.005560135,1.718634,1.263732,,,0.005376786,1.724447,1.263661,,45.0005259245515,43.1983566565314,1.86298612447109
0.978, 1.07,1.07,,,0.001822403,1.715318,1.262728,,,0.001577884,1.720648,1.262675,,45.0005259245515,42.3767190731889,2.64537872259529
0.989, 0.58,0.58,,,-0.003053006,1.71296,1.262785,,,-0.003223181,1.715847,1.262756,,45.0005259245515,41.6299267006886,3.39055532851501
経過時間(s),めり込み量(mm),Y軸めり込み量(mm),,デバイス先端,X座標,Y座標,Z座標,,仮想物体との接触位置,X座標,Y座標,Z座標,,接触点の法線と床の法線とのなす角,接触点の法線とデバイスの方向ベクトルのなす角,床の法線とデバイスの方向ベクトルのなす角
0.001, 0.05,-0.05,,,0.4080356,1.618184,1.26336,,,0.4079168,1.617937,1.26334,,45.0005395849294,19.7171812265426,26.0172245982426
0.011, 1.29,1.29,,,0.4066098,1.610668,1.263143,,,0.4093691,1.616484,1.263619,,45.0005395849294,20.0516982695716,25.7518854167497
0.022, 2.65,2.65,,,0.4048658,1.603441,1.262583,,,0.4104711,1.615382,1.263596,,45.0005395849294,20.3162861302767,25.5470019454655
0.034, 3.75,3.75,,,0.4033103,1.597699,1.262532,,,0.4112061,1.614647,1.264027,,45.0005395849294,20.5153878465894,25.4159135434679
0.044, 4.79,4.79,,,0.4011626,1.593019,1.262138,,,0.4112077,1.614646,1.264104,,45.0005395849294,20.6094805299771,25.3770070794909
0.055, 5.61,5.61,,,0.3996733,1.589039,1.262298,,,0.4114309,1.614422,1.264637,,45.0005395849294,20.6824423162082,25.3299112189269
0.066, 6.33,6.33,,,0.3982395,1.585749,1.262998,,,0.411467,1.614386,1.265629,,45.0005395849294,20.7399661677973,25.2675772067487
0.077, 6.88,6.88,,,0.3964344,1.583909,1.263034,,,0.4108104,1.615043,1.26589,,45.0005395849294,20.7452885925599,25.2594475743153
0.09, 7.55,7.55,,,0.3943459,1.581547,1.262625,,,0.4101449,1.615708,1.265796,,45.0005395849294,20.7237393463281,25.3042604442127
0.1, 7.98,7.98,,,0.3919229,1.581134,1.26173,,,0.4086612,1.617192,1.265166,,45.0005395849294,20.6730029950379,25.4067047411757
0.111, 8.3,8.3,,,0.389563,1.581349,1.26111,,,0.4070188,1.618834,1.264743,,45.0005395849294,20.6245718325283,25.4903062542902
0.122, 8.22,8.22,,,0.3880213,1.583419,1.260636,,,0.4053358,1.620517,1.264217,,45.0005395849294,20.5718137453,25.5337821146948
0.133, 8.01,8.01,,,0.3874721,1.585317,1.261148,,,0.4043552,1.621498,1.264589,,45.0005395849294,20.5593401126754,25.5154737931341
0.144, 8.18,8.18,,,0.3851518,1.586538,1.26092,,,0.4023638,1.623489,1.264386,,45.0005395849294,20.5814238211948,25.4652497060173
0.155, 8.25,8.25,,,0.3816282,1.589597,1.261384,,,0.3989606,1.626893,1.26482,,45.0005395849294,20.6116918036594,25.4001221465463
0.166, 8.32,8.32,,,0.3775665,1.593257,1.261409,,,0.3949897,1.630864,1.26479,,45.0005395849294,20.6526302488579,25.3135033974498
0.178, 8.03,8.03,,,0.3751686,1.597546,1.261617,,,0.391977,1.633877,1.264852,,45.0005395849294,20.6732164384435,25.2752338485952
0.189, 7.95,7.95,,,0.371224,1.602004,1.261621,,,0.3878792,1.637974,1.264813,,45.0005395849294,20.6522153148774,25.289618226587
0.2, 7.71,7.71,,,0.366742,1.608046,1.261068,,,0.3829473,1.642906,1.264138,,45.0005395849294,20.5596508862739,25.3683907960927
0.21, 7.47,7.47,,,0.3615819,1.61475,1.261138,,,0.3773457,1.648508,1.264088,,45.0005395849294,20.4552770609241,25.4583631679783
0.222, 7.32,7.32,,,0.3560449,1.621304,1.26122,,,0.3715167,1.654337,1.264084,,45.0005395849294,20.3827131332012,25.5171471894342
0.233, 7.16,7.16,,,0.3505507,1.627842,1.261345,,,0.3657146,1.660139,1.264118,,45.0005395849294,20.3211150738856,25.5609355309846
0.244, 6.98,6.98,,,0.3441184,1.635445,1.261623,,,0.3589083,1.666945,1.264283,,45.0005395849294,20.305463695838,25.5487999927145
0.256, 6.78,6.78,,,0.3378474,1.643015,1.261626,,,0.3522069,1.673646,1.264135,,45.0005395849294,20.312725894271,25.49378965067
0.266, 6.67,6.67,,,0.3311085,1.650523,1.262381,,,0.3451951,1.680658,1.26476,,45.0005395849294,20.3445170088781,25.4065937506048
0.277, 6.54,6.54,,,0.3241068,1.658419,1.262565,,,0.3378586,1.687995,1.264807,,45.0005395849294,20.4294828522414,25.2668088104884
0.288, 6.51,6.51,,,0.3172852,1.665484,1.262907,,,0.3308963,1.694957,1.265088,,45.0005395849294,20.5583873013126,25.1069892185467
0.299, 6.62,6.62,,,0.3086789,1.673395,1.262009,,,0.3224761,1.703377,1.26422,,45.0005395849294,20.6326843894892,25.0287630641594
0.311, 6.74,6.74,,,0.2996058,1.681615,1.261708,,,0.3136686,1.712185,1.263953,,45.0005395849294,20.6375013802674,25.0190437052409
0.322, 6.97,6.97,,,0.2903218,1.689408,1.261587,,,0.3048701,1.720983,1.263883,,45.0005395849294,20.5972032652857,25.046694017779
0.333, 7.18,7.18,,,0.2806697,1.697661,1.26152,,,0.2956604,1.730193,1.26386,,45.0005395849294,20.5870177459693,25.0433130742339
0.344, 7.38,7.38,,,0.2718594,1.705164,1.261518,,,0.2872413,1.738612,1.263886,,45.0005395849294,20.6203541908332,24.9914531568564
0.355, 7.66,7.66,,,0.2626958,1.712481,1.262068,,,0.2786149,1.747238,1.264493,,45.0005395849294,20.6992326282681,24.8964418130509
0.366, 8.11,8.11,,,0.253188,1.719042,1.262774,,,0.2699607,1.755893,1.265289,,45.0005395849294,20.8198144920673,24.7519337972549
0.377, 8.47,8.47,,,0.2442335,1.72565,1.262908,,,0.2616747,1.764179,1.265478,,45.0005395849294,20.9231467135977,24.6249571690233
0.388, 8.94,8.94,,,0.2350524,1.731776,1.263545,,,0.2533993,1.772454,1.26621,,45.0005395849294,20.9909482920543,24.5388643444783
0.4, 9.42,9.42,,,0.2257629,1.737906,1.263865,,,0.245049,1.780804,1.266658,,45.0005395849294,21.0562995402144,24.4674803319017
0.411, 9.89,9.89,,,0.2161773,1.744441,1.264216,,,0.2363344,1.789519,1.267131,,45.0005395849294,21.1669007903667,24.3506772701556
0.422, 10.45,10.45,,,0.2068146,1.750228,1.264622,,,0.2279649,1.797889,1.267667,,45.0005395849294,21.3211042594197,24.1858426119553
0.433, 10.9,10.9,,,0.1982126,1.755956,1.265208,,,0.220118,1.805735,1.268329,,45.0005395849294,21.4889407856766,24.0012208962802
0.444, 11.43,11.43,,,0.1895368,1.761207,1.266783,,,0.2123724,1.813481,1.26995,,45.0005395849294,21.625561640748,23.8344789078072
0.455, 11.88,11.88,,,0.1813026,1.766553,1.268267,,,0.2049156,1.820938,1.271459,,45.0005395849294,21.7393474665122,23.6945283356082
0.467, 12.41,12.41,,,0.1738676,1.770534,1.26967,,,0.198407,1.827446,1.272927,,45.0005395849294,21.8732874724089,23.5410915552682
0.478, 12.95,12.95,,,0.1672136,1.773786,1.271654,,,0.1926369,1.833216,1.274981,,45.0005395849294,22.0276856018478,23.3706732175768
0.489, 13.28,13.28,,,0.1612142,1.777672,1.273249,,,0.1871226,1.838731,1.276555,,45.0005395849294,22.1827906558461,23.1919544927276
0.5, 13.69,13.69,,,0.1560788,1.78023,1.275712,,,0.1825717,1.843282,1.27897,,45.0005395849294,22.3673423620843,22.9768240304262
0.511, 14.2,14.2,,,0.1511148,1.782043,1.277438,,,0.1783201,1.847533,1.280681,,45.0005395849294,22.5857615603794,22.733054585732
0.522, 14.51,14.51,,,0.1476895,1.783644,1.279108,,,0.1751486,1.850705,1.282288,,45.0005395849294,22.8636597518592,22.4317339686927
0.533, 14.82,14.82,,,0.1442771,1.785213,1.280637,,,0.1719851,1.853868,1.283781,,45.0005395849294,23.1429256886823,22.1350749556322
0.545, 15.12,15.12,,,0.1417282,1.786038,1.282852,,,0.1696043,1.856249,1.285944,,45.0005395849294,23.4559891081253,21.8040942429475
0.556, 15.4,15.4,,,0.1400203,1.786161,1.28463,,,0.1679939,1.857859,1.287647,,45.0005395849294,23.7863960849357,21.4542246426388
0.567, 15.6,15.6,,,0.1382165,1.786967,1.285789,,,0.1661265,1.859727,1.288708,,45.0005395849294,24.1035473724832,21.1182254486011
0.578, 15.81,15.81,,,0.1366362,1.787373,1.287391,,,0.1645928,1.861261,1.290249,,45.0005395849294,24.3580146006673,20.8504820405873
0.589, 15.86,15.86,,,0.1345859,1.789266,1.287655,,,0.16238,1.863473,1.290436,,45.0005395849294,24.5442157975441,20.6533081451142
0.6, 15.91,15.91,,,0.1330057,1.790652,1.288599,,,0.1606753,1.865178,1.291292,,45.0005395849294,24.7027854649025,20.482737835718
0.611, 16.03,16.03,,,0.1318093,1.791231,1.289057,,,0.1594111,1.866442,1.29166,,45.0005395849294,24.912514955268,20.2597714391094
0.622, 16.13,16.13,,,0.131227,1.791459,1.289548,,,0.1585865,1.867267,1.292057,,45.0005395849294,25.2141361006223,19.9458815667998
0.633, 16.27,16.27,,,0.1309406,1.791249,1.289755,,,0.1579202,1.867933,1.292096,,45.0005395849294,25.6662160639215,19.4737498762028
0.644, 16.37,16.37,,,0.1312157,1.790797,1.290171,,,0.1576192,1.868234,1.292285,,45.0005395849294,26.2112702671628,18.9051161530554
0.656, 16.5,16.5,,,0.1326268,1.789232,1.290344,,,0.1582291,1.867624,1.292145,,45.0005395849294,26.940058261512,18.1477865065063
0.667, 16.6,16.6,,,0.1336575,1.788289,1.290152,,,0.1583641,1.867489,1.291592,,45.0005395849294,27.6910802285381,17.3692883967611
0.678, 16.82,16.82,,,0.1348609,1.786523,1.291034,,,0.1586804,1.867173,1.292026,,45.0005395849294,28.5529920212009,16.4800609708203
0.69, 17.09,17.09,,,0.1348489,1.785685,1.290308,,,0.1579085,1.867945,1.290899,,45.0005395849294,29.3428914239009,15.6727462937687
