経過時間(s),めり込み量(mm),Y軸めり込み量(mm),,デバイス先端,X座標,Y座標,Z座標,,仮想物体との接触位置,X座標,Y座標,Z座標,,接触点の法線と床の法線とのなす角,接触点の法線とデバイスの方向ベクトルのなす角,床の法線とデバイスの方向ベクトルのなす角
0.001, 0.57,-0.57,,,0.3246477,1.787951,1.520998,,,0.3236447,1.78538,1.520287,,38.5821495287739,13.3796930513072,25.700532640904
0.011, 0.81,0.81,,,0.3234251,1.77948,1.522099,,,0.3248345,1.783149,1.523113,,39.0946220230337,14.0824836388515,25.4707941119218
0.022, 2.29,2.29,,,0.3214431,1.771513,1.521963,,,0.3253826,1.781869,1.52484,,39.3861583943592,14.4355497676028,25.3711331169681
0.033, 3.65,3.65,,,0.3199382,1.764289,1.521213,,,0.3261732,1.780809,1.525889,,39.6258638766104,14.5560769898902,25.407619986499
0.044, 4.9,4.9,,,0.3188217,1.757849,1.519942,,,0.3271305,1.779964,1.526362,,39.815674828363,14.5101046954134,25.5523704740037
0.055, 6.04,6.04,,,0.3175563,1.752133,1.51864,,,0.3277542,1.779368,1.526746,,39.9492938153777,14.4056967191187,25.7195922832525
0.066, 7.09,7.09,,,0.3157364,1.747352,1.517277,,,0.3276966,1.779281,1.526961,,39.9688486464273,14.2191992627949,25.891656696488
0.077, 7.79,7.79,,,0.3135095,1.743978,1.517756,,,0.3266866,1.779037,1.528466,,40.0246068941651,14.1904749030398,26.0005435692063
0.089, 8.32,8.32,,,0.3124323,1.740566,1.518992,,,0.3265617,1.778014,1.53037,,40.2537836401037,14.4643304764171,26.0042677297476
0.1, 8.63,8.63,,,0.3107344,1.738363,1.521188,,,0.3254545,1.777208,1.532894,,40.4345719122139,14.7473239888759,25.9913108612527
0.111, 8.71,8.71,,,0.3099999,1.737564,1.522406,,,0.324947,1.776763,1.534162,,40.5339306713051,14.8699566169163,26.0345425424012
0.122, 9.29,9.29,,,0.3069266,1.735281,1.523134,,,0.3230124,1.777036,1.535656,,40.4753310649517,14.7818574243585,26.1762689637351
0.133, 9.6,9.6,,,0.3053245,1.734089,1.523448,,,0.3220586,1.777148,1.536416,,40.4512546487974,14.6622420323,26.3361756405863
0.144, 9.92,9.92,,,0.304224,1.732598,1.523514,,,0.3215998,1.777067,1.537003,,40.4697542156496,14.5678385753136,26.4738654202331
0.155, 10.21,10.21,,,0.3041405,1.730863,1.523376,,,0.3220437,1.776583,1.537366,,40.5768174279102,14.543202083663,26.5800304626428
0.166, 10.38,10.38,,,0.30363,1.730246,1.523043,,,0.3218284,1.77669,1.5374,,40.5531815589451,14.393926595959,26.6790272217182
0.177, 10.55,10.55,,,0.3025346,1.730001,1.522727,,,0.3210779,1.777119,1.537428,,40.4586073472343,14.1643588217013,26.8227446431397
0.188, 10.62,10.62,,,0.2999595,1.731533,1.521847,,,0.3187857,1.778879,1.536741,,40.0679717639988,13.62808397262,27.0417034263643
0.2, 10.63,10.63,,,0.2972617,1.733753,1.520501,,,0.3162925,1.781057,1.535495,,39.5795722707988,12.993819817338,27.2754342008053
0.21, 10.51,10.51,,,0.2951256,1.736001,1.519969,,,0.3141381,1.782648,1.534858,,39.2198432926975,12.4974272954842,27.5253149570893
0.222, 10.38,10.38,,,0.2925603,1.738735,1.519045,,,0.3115187,1.784718,1.533795,,38.74746400775,11.9510446204862,27.735749664467
0.233, 10.04,10.04,,,0.2903279,1.742466,1.518283,,,0.3087924,1.786902,1.532565,,38.243758061046,11.4570870610038,27.867802830658
0.244, 9.87,9.87,,,0.288465,1.745539,1.516441,,,0.3066159,1.789237,1.530477,,37.6979849804144,10.9726951811878,27.8568130565893
0.255, 9.86,9.86,,,0.2875386,1.746775,1.515192,,,0.3055561,1.790493,1.529216,,37.4014250050942,10.7621597285228,27.7298637491135
0.266, 9.76,9.76,,,0.285406,1.750483,1.511605,,,0.3030854,1.793781,1.525514,,36.6153009893529,10.0328756916989,27.6089676966212
0.277, 9.68,9.68,,,0.281979,1.754652,1.507884,,,0.299438,1.797601,1.521716,,35.6835505143701,9.17350387556306,27.5681897608637
0.288, 9.44,9.44,,,0.2771289,1.760568,1.503634,,,0.2941791,1.802434,1.517149,,34.4739377063998,8.09783619613115,27.6154290553962
0.299, 9.18,9.18,,,0.2723663,1.766205,1.499594,,,0.2890509,1.806914,1.512751,,33.3185395234577,7.13525851696107,27.7186998052258
0.311, 8.76,8.76,,,0.266732,1.773235,1.495043,,,0.2827718,1.812032,1.507595,,31.953215482217,6.16929733292504,27.8529027733982
0.322, 8.43,8.43,,,0.261757,1.779218,1.490514,,,0.2772359,1.816523,1.502588,,30.7100322954102,5.45078834610389,27.9090469268134
0.333, 8.08,8.08,,,0.2575379,1.784674,1.486263,,,0.2723493,1.820454,1.497813,,29.5826413023804,4.9685791385538,27.8503141317748
0.344, 7.92,7.92,,,0.2535294,1.788945,1.481729,,,0.2679283,1.824063,1.492984,,28.5118964816558,4.62113852420107,27.6476231511532
0.355, 7.91,7.91,,,0.2489695,1.792562,1.476691,,,0.2632341,1.82772,1.487862,,27.387244394407,4.42531743303284,27.4179119429269
0.366, 7.87,7.87,,,0.2444961,1.796119,1.471742,,,0.2585573,1.83119,1.48277,,26.2792921192141,4.40237568202283,27.1560629880028
0.377, 7.96,7.96,,,0.2390919,1.799327,1.466196,,,0.2531984,1.834834,1.47731,,25.0665630375216,4.62092636145588,26.9847020842322
0.389, 8.03,8.03,,,0.2335136,1.80271,1.459879,,,0.2476524,1.83857,1.471133,,23.7625826310571,5.06697313345165,26.9010766654562
0.4, 8.33,8.33,,,0.2271672,1.80502,1.453048,,,0.2417409,1.842227,1.464805,,22.4164343453776,5.8203267562408,26.8723130321144
0.411, 8.59,8.59,,,0.2208881,1.80729,1.446224,,,0.235819,1.845662,1.458441,,21.0777992675761,6.75589573375013,26.850159314158
0.422, 9.05,9.05,,,0.2147783,1.808235,1.439407,,,0.2303904,1.848668,1.452378,,19.835143712868,7.70066753713631,26.8171968221407
0.435, 9.49,9.49,,,0.2088422,1.809029,1.432475,,,0.2250859,1.851491,1.446137,,18.5943698752238,8.65682569243887,26.7200561669207
0.444, 10,10,,,0.2033509,1.808835,1.427199,,,0.220259,1.853646,1.441512,,17.5913549159716,9.34438922742594,26.4677131275094
0.455, 10.37,10.37,,,0.1976863,1.809371,1.421275,,,0.2150372,1.855934,1.436043,,16.4606444510976,10.1736279573295,26.2368595701762
0.466, 10.81,10.81,,,0.1914881,1.809198,1.416562,,,0.2093838,1.857886,1.431805,,15.4330647171789,10.9151312022385,25.9350369342469
0.477, 11.18,11.18,,,0.1863823,1.809134,1.411609,,,0.2047067,1.859601,1.427247,,14.4700046559122,11.5958816237181,25.6805236022872
0.488, 11.56,11.56,,,0.1807038,1.809071,1.406437,,,0.1994444,1.861322,1.4225,,13.4352916433776,12.3815975356678,25.4487394317055
0.5, 12.04,12.04,,,0.1751007,1.808377,1.401005,,,0.194398,1.862891,1.417667,,12.4167158060818,13.1522597111058,25.2282250729407
0.511, 12.47,12.47,,,0.1693208,1.807798,1.39556,,,0.1891164,1.864371,1.412756,,11.3732268544817,13.9850424553163,25.0320483850587
0.522, 12.96,12.96,,,0.1641216,1.806613,1.390911,,,0.1844939,1.865522,1.408681,,10.4906810609105,14.653390107382,24.815959988753
0.533, 13.33,13.33,,,0.1582314,1.806084,1.385747,,,0.1789849,1.866754,1.403898,,9.45450638793424,15.4915789461701,24.6044990454811
0.544, 13.65,13.65,,,0.152929,1.805563,1.380683,,,0.1740045,1.867799,1.399149,,8.47493519858205,16.2752645844456,24.4046238102665
0.555, 13.94,13.94,,,0.1476031,1.805056,1.375662,,,0.1689574,1.868726,1.394397,,7.49690080175035,17.0724961950156,24.2106959621061
0.567, 14.06,14.06,,,0.1419729,1.80532,1.370338,,,0.1633824,1.869619,1.389042,,6.4143538413552,17.9885645561003,24.0172342743436
0.577, 14.17,14.17,,,0.1366514,1.805387,1.365231,,,0.1580449,1.870335,1.383846,,5.38368600824404,18.7900582045938,23.7522417249415
0.589, 14.14,14.14,,,0.1307804,1.806028,1.360198,,,0.1519144,1.870945,1.378506,,4.31038925816179,19.674297885032,23.466985712383
0.6, 14.06,14.06,,,0.1255814,1.806605,1.355648,,,0.14639,1.871362,1.373512,,3.37318765204285,20.397760039524,23.1170802535821
0.611, 13.99,13.99,,,0.1200013,1.80706,1.350472,,,0.1404425,1.871664,1.367895,,2.45200049120442,21.1901353857292,22.737711067069
0.622, 13.76,13.76,,,0.11511,1.808086,1.345367,,,0.1349534,1.871808,1.362157,,1.799070923544,21.9342656920746,22.353644418085
0.633, 13.56,13.56,,,0.109014,1.808888,1.339725,,,0.1283998,1.871768,1.356007,,1.85877958183306,22.9577182843021,22.0918364442947
0.644, 13.39,13.39,,,0.1025498,1.809337,1.332724,,,0.1215917,1.871504,1.348668,,2.69449845353138,24.2170821888024,21.9375937016551
0.656, 13.2,13.2,,,0.09689943,1.809674,1.326236,,,0.1155498,1.871052,1.341852,,3.76857896779907,25.3414918043424,21.7799085437696
0.666, 13.01,13.01,,,0.09150124,1.809877,1.31957,,,0.10971,1.870399,1.334884,,4.94161397934779,26.4584855421975,21.6222336311675
0.677, 12.91,12.91,,,0.08620515,1.809402,1.313103,,,0.1041055,1.869578,1.328206,,6.11984377650256,27.4929825500055,21.4281862547
0.689, 12.7,12.7,,,0.08129744,1.809295,1.307139,,,0.09865947,1.868601,1.321804,,7.28464584900957,28.3861749006492,21.1298709208119
0.7, 12.67,12.67,,,0.07683018,1.808296,1.302051,,,0.09382728,1.867602,1.316342,,8.31335341788348,28.9887051441568,20.6899930901255
0.711, 12.6,12.6,,,0.07183395,1.807246,1.297547,,,0.08842875,1.866442,1.311354,,9.37385295513818,29.5617306788183,20.1968944269073
0.722, 12.52,12.52,,,0.06749887,1.806185,1.292659,,,0.08365698,1.86518,1.305923,,10.4067141326855,30.0762351542997,19.6719346396449
0.733, 12.53,12.53,,,0.06308736,1.8046,1.287779,,,0.0789391,1.863815,1.300692,,11.4219944037985,30.6290364993915,19.2072598078668
0.745, 12.63,12.63,,,0.0582188,1.802354,1.282363,,,0.07384346,1.8622,1.29509,,12.5204638153663,31.2895874907366,18.76919197726
0.755, 12.49,12.49,,,0.05368065,1.800897,1.275672,,,0.06881998,1.860211,1.288068,,13.754822398011,32.1686874539674,18.4162624522883
0.766, 12.45,12.45,,,0.04853709,1.798835,1.269718,,,0.06331614,1.858073,1.281865,,14.9732324893876,33.025900076612,18.0570764742109
0.777, 12.48,12.48,,,0.04475769,1.796705,1.264533,,,0.05924775,1.856215,1.276489,,15.9587536271149,33.6305425560616,17.6794267877735
0.789, 12.7,12.7,,,0.04086884,1.79371,1.260228,,,0.05522697,1.854441,1.272061,,16.8491182795209,34.0326562718779,17.1932351531613
0.8, 12.65,12.65,,,0.03732717,1.792086,1.256928,,,0.0512806,1.852711,1.268218,,17.6758153253504,34.3120007558742,16.6504280820943
0.811, 12.47,12.47,,,0.03276492,1.790704,1.254114,,,0.04625154,1.850674,1.264581,,18.6055799228872,34.6282180150788,16.0447166780693
0.822, 12.09,12.09,,,0.02812548,1.790336,1.252238,,,0.04103741,1.848631,1.261587,,19.4963970753131,34.8999468383624,15.4421095949356
0.833, 11.57,11.57,,,0.02266537,1.790114,1.249613,,,0.0348928,1.846044,1.257895,,20.5714636981148,35.4466659001677,14.9333032046108
0.844, 10.91,10.91,,,0.01707308,1.789964,1.245371,,,0.02848884,1.842815,1.252677,,21.8412094898646,36.2763562763176,14.5201604411391
0.856, 10.39,10.39,,,0.01170872,1.789081,1.240886,,,0.0224362,1.839489,1.247474,,23.0797532708067,37.125942992966,14.1550330524228
0.867, 9.98,9.98,,,0.006652288,1.787412,1.235552,,,0.01677777,1.835897,1.241633,,24.3497586097378,38.04161520309,13.8212383018784
0.877, 9.75,9.75,,,0.00301322,1.785389,1.230715,,,0.01264481,1.83282,1.236382,,25.389999806478,38.6223520211098,13.3856984949679
0.889, 9.56,9.56,,,-0.0007234141,1.783187,1.226631,,,0.008415222,1.829797,1.231842,,26.3754458121265,39.0411279829427,12.8440935371614
0.9, 9.23,9.23,,,-0.00520803,1.781417,1.223277,,,0.003405511,1.82654,1.227873,,27.4014272818238,39.5074830412099,12.328048854065
0.911, 8.57,8.57,,,-0.01077395,1.780555,1.219851,,,-0.002934903,1.8225,1.22364,,28.6279738358227,40.1774323725914,11.837292945667
0.922, 7.9,7.9,,,-0.01591256,1.779849,1.216734,,,-0.008811489,1.818577,1.219751,,29.7749042919769,40.7598938133287,11.3673887504511
0.933, 7.51,7.51,,,-0.02061706,1.777706,1.212938,,,-0.01402646,1.814585,1.215421,,30.9013766245889,41.324958762734,10.9022101922357
0.944, 7.15,7.15,,,-0.02550971,1.775404,1.209697,,,-0.01942278,1.810582,1.211705,,31.9960544274993,41.8309938038802,10.4069600194888
0.955, 6.74,6.74,,,-0.0298271,1.773131,1.205605,,,-0.02427089,1.806321,1.207176,,33.124999288522,42.3755237901174,9.93976570175069
0.966, 6.59,6.59,,,-0.03393285,1.769568,1.201412,,,-0.02868704,1.802091,1.202646,,34.2125702797987,42.8627177549624,9.46859194515814
0.978, 6.51,6.51,,,-0.03782723,1.765942,1.197768,,,-0.03285068,1.798095,1.1987,,35.2135378899042,43.2616520178086,8.99807047161316
0.989, 6.54,6.54,,,-0.04201936,1.760923,1.192946,,,-0.03724895,1.79327,1.193642,,36.3895973945106,43.8377033261882,8.5166138655113
1, 6.47,6.47,,,-0.04574494,1.75655,1.18833,,,-0.04124383,1.788579,1.188812,,37.5024469152021,44.397000181,8.07520948758784
1.011, 5.86,5.86,,,-0.0510153,1.753192,1.18304,,,-0.04706892,1.782217,1.183287,,38.96933245148,45.4217846600786,7.7772570074893
1.022, 5.25,5.25,,,-0.05633866,1.749513,1.177746,,,-0.0528758,1.775538,1.177791,,40.4613018567869,46.5385512941501,7.58739397554565
1.034, 4.94,4.94,,,-0.06118439,1.745114,1.173521,,,-0.05802524,1.769586,1.173377,,41.7536794797217,47.3846136332849,7.35612719177918
1.045, 4.92,4.92,,,-0.06477832,1.74053,1.170235,,,-0.06176182,1.764921,1.169895,,42.7444462025857,47.8469696159043,7.07071451176102
1.055, 5.34,5.34,,,-0.06709835,1.735149,1.167825,,,-0.06400442,1.761674,1.16723,,43.4228547230188,47.9027825051539,6.73094206519871
1.066, 5.83,5.83,,,-0.06978582,1.729129,1.165547,,,-0.06663083,1.758116,1.164633,,44.1570317364731,47.9628949983664,6.39993958128665
経過時間(s),めり込み量(mm),Y軸めり込み量(mm),,デバイス先端,X座標,Y座標,Z座標,,仮想物体との接触位置,X座標,Y座標,Z座標,,接触点の法線と床の法線とのなす角,接触点の法線とデバイスの方向ベクトルのなす角,床の法線とデバイスの方向ベクトルのなす角
0, 0.85,-0.85,,,0.3332508,1.781598,1.526195,,,0.331466,1.777843,1.525391,,40.2870261698691,15.9426975603703,27.6281878484108
0.011, 0.12,0.12,,,0.330363,1.777771,1.525369,,,0.3306234,1.778312,1.525491,,40.1830843539723,15.292571144956,28.0900930385576
0.022, 0.93,0.93,,,0.3275757,1.774567,1.525106,,,0.3295627,1.778647,1.52606,,40.1091509733589,14.8580942862054,28.4886499334626
0.033, 1.6,1.6,,,0.325323,1.771629,1.525218,,,0.3287756,1.778655,1.526901,,40.1082562186025,14.6314088516972,28.7748894932341
0.044, 2.14,2.14,,,0.3246274,1.768013,1.526298,,,0.32925,1.777406,1.52857,,40.3866000799132,14.8116370483111,28.8509948739432
0.056, 2.72,2.72,,,0.3244881,1.763539,1.527843,,,0.3303198,1.775478,1.530741,,40.8131795326557,15.2454325957109,28.7206919436783
0.066, 3.26,3.26,,,0.3255275,1.758659,1.52918,,,0.3324491,1.772999,1.532651,,41.3551721036868,15.8101201771751,28.4785668669809
0.077, 3.74,3.74,,,0.3265737,1.75396,1.530826,,,0.3343992,1.770453,1.534786,,41.9063410336125,16.5095656796664,28.1164900114178
0.088, 4.19,4.19,,,0.3268107,1.750455,1.531556,,,0.3354976,1.768979,1.536017,,42.2226436701793,16.8537132891572,27.9123817665828
0.1, 4.58,4.58,,,0.3260892,1.748248,1.531841,,,0.3355384,1.768491,1.53676,,42.3271899578008,16.9177548485804,27.8717984912113
0.111, 4.85,4.85,,,0.3240513,1.747598,1.532115,,,0.3341149,1.769037,1.537382,,42.2114319149687,16.7425280578471,28.0320944888344
0.121, 5.06,5.06,,,0.3218029,1.74772,1.532066,,,0.3323629,1.770038,1.5376,,41.997790433865,16.4836246219206,28.2282028748265
0.133, 5.16,5.16,,,0.3194885,1.748509,1.532069,,,0.3303375,1.771236,1.537757,,41.7407431017937,16.2001051849103,28.4400104501891
0.144, 5.22,5.22,,,0.3179651,1.74917,1.531916,,,0.3289967,1.772108,1.537718,,41.5529436406956,15.9320766165065,28.6366054871462
0.155, 5.33,5.33,,,0.3157233,1.750074,1.531549,,,0.3270073,1.773462,1.537535,,41.2595221372117,15.6161120742942,28.7592210397141
0.166, 5.53,5.53,,,0.3139298,1.750651,1.53024,,,0.3256276,1.774922,1.536535,,40.9404054627851,15.2102622451059,28.8117895891983
0.177, 5.71,5.71,,,0.3124463,1.751004,1.529279,,,0.3244752,1.776048,1.535832,,40.6928896594354,14.9333954121621,28.7974427772459
0.188, 5.9,5.9,,,0.3116671,1.750845,1.528294,,,0.3240108,1.776777,1.535087,,40.5318338032883,14.8132933691387,28.6377171004026
0.199, 6.03,6.03,,,0.3102475,1.751323,1.527583,,,0.3227683,1.777859,1.534521,,40.2920839248087,14.7098621098681,28.4660881117146
0.211, 6.11,6.11,,,0.3085282,1.752021,1.527285,,,0.3211533,1.778957,1.534285,,40.0480890838781,14.6795565613641,28.31013782183
0.222, 6.02,6.02,,,0.3061195,1.754439,1.52656,,,0.3185488,1.78099,1.533412,,39.592600856278,14.4761671939193,28.2476842813446
0.233, 6.1,6.1,,,0.3032488,1.75658,1.524838,,,0.3158697,1.783473,1.531764,,39.0294312843146,14.0777537329829,28.2824516507998
0.244, 6.22,6.22,,,0.2987878,1.759601,1.522514,,,0.3117113,1.787005,1.529604,,38.2168163806146,13.4677367485796,28.3964594577058
0.255, 6.43,6.43,,,0.2944084,1.762567,1.519047,,,0.3078022,1.790848,1.52644,,37.3149445673246,12.6778407609741,28.5326431806824
0.267, 6.65,6.65,,,0.2894638,1.766118,1.514674,,,0.3033355,1.795309,1.5224,,36.2433015767491,11.755890753404,28.6649541865074
0.285, 7,7,,,0.2850748,1.768657,1.509743,,,0.2996704,1.799409,1.517966,,35.2330722303868,10.8627948791796,28.7033603391417
0.291, 7.38,7.38,,,0.2804662,1.77107,1.504722,,,0.295731,1.803539,1.513427,,34.1892144485818,10.0818635146103,28.5470326813159
0.3, 7.65,7.65,,,0.2761017,1.773751,1.499999,,,0.2918368,1.807422,1.509034,,33.1815293476145,9.39617742781913,28.4442998088685
0.31, 7.87,7.87,,,0.2718357,1.776356,1.495663,,,0.2879257,1.811035,1.504931,,32.2186468712612,8.86394775816122,28.2910201228751
0.322, 8.05,8.05,,,0.2665187,1.779441,1.4914,,,0.2828686,1.815015,1.500784,,31.1280466911719,8.51742068158456,28.045237479979
0.333, 8.24,8.24,,,0.2609855,1.782685,1.486506,,,0.2776168,1.819165,1.496004,,29.9522364884632,8.18407672351281,27.8240144891076
0.344, 8.38,8.38,,,0.2547355,1.786621,1.480709,,,0.2715537,1.823796,1.490286,,28.5884185038926,7.86878580868868,27.6266476407958
0.355, 8.57,8.57,,,0.2482343,1.790135,1.474886,,,0.2653565,1.828184,1.484661,,27.2382762652071,7.69368110758345,27.5164903529272
0.366, 8.84,8.84,,,0.2418073,1.793606,1.467056,,,0.259387,1.832883,1.477213,,25.7179479152556,7.45016523365507,27.4613177938945
0.377, 9.01,9.01,,,0.2354176,1.797052,1.460009,,,0.2532584,1.837109,1.470429,,24.2755195781675,7.58048523939243,27.4113617916952
0.389, 9.16,9.16,,,0.2284454,1.80048,1.453054,,,0.2464929,1.841228,1.463697,,22.7871394371697,8.04864261377672,27.3391564488937
0.4, 9.14,9.14,,,0.221366,1.804583,1.446112,,,0.239278,1.845253,1.456692,,21.2370707368522,8.80727426510012,27.2180862265824
0.411, 9.21,9.21,,,0.2146237,1.807829,1.438967,,,0.2325526,1.848883,1.44955,,19.7387202274908,9.58506971915401,27.0180248687181
0.422, 9.26,9.26,,,0.2077831,1.810713,1.432584,,,0.2256369,1.852095,1.443138,,18.3151910233103,10.4011919248952,26.7467417152654
0.433, 9.26,9.26,,,0.2014728,1.813663,1.425348,,,0.2191646,1.85515,1.435842,,16.8515207984946,11.2384843013798,26.5011947138891
0.444, 9.25,9.25,,,0.1938497,1.816684,1.417964,,,0.2113536,1.858215,1.428387,,15.2468361995462,12.3335019061919,26.2587059296286
0.456, 9.02,9.02,,,0.1863922,1.820632,1.409721,,,0.203335,1.861179,1.419843,,13.5155736846479,13.610766882235,26.0827039124461
0.466, 8.7,8.7,,,0.178078,1.824751,1.401454,,,0.1943358,1.863926,1.411181,,11.6878449956913,15.1079408915446,25.9385732645913
0.478, 8.47,8.47,,,0.1702233,1.827934,1.393708,,,0.1859147,1.866117,1.403091,,9.99138997760836,16.4484662241463,25.7145157452931
0.489, 8.14,8.14,,,0.1631083,1.831024,1.386827,,,0.1780746,1.867816,1.395759,,8.44385100853432,17.6708890515486,25.4764478008499
0.5, 7.94,7.94,,,0.1556562,1.833325,1.379177,,,0.1701042,1.869282,1.387816,,6.82616215665494,18.927228889878,25.2167162045095
0.512, 7.54,7.54,,,0.1482344,1.836222,1.37147,,,0.1618124,1.87046,1.379608,,5.16038535926225,20.2385483344015,24.9434096075715
0.522, 7.2,7.2,,,0.1400872,1.838589,1.363337,,,0.1529129,1.871332,1.371019,,3.41913390642413,21.6644663971778,24.6700125106295
0.533, 6.76,6.76,,,0.1325145,1.840981,1.35596,,,0.1444338,1.871799,1.363075,,1.85899003703101,22.9833144175044,24.3781192619298
0.544, 6.26,6.26,,,0.1244368,1.843312,1.347816,,,0.1353492,1.871925,1.354322,,0.869081463379373,24.4230414148509,24.0708785785921
0.556, 5.97,5.97,,,0.1159288,1.84431,1.338825,,,0.1261893,1.87164,1.344962,,2.18372987797867,25.9155230843312,23.7559453949158
0.567, 5.44,5.44,,,0.1080019,1.845949,1.33012,,,0.1172375,1.870939,1.335679,,3.94932882009624,27.4111466407423,23.4632820424086
0.578, 5.07,5.07,,,0.09991564,1.846481,1.320546,,,0.108407,1.869785,1.325703,,5.81968685291074,29.0091615601518,23.2192462203442
0.589, 4.52,4.52,,,0.09220544,1.847384,1.31171,,,0.09967279,1.86824,1.316292,,7.65524507287242,30.5114582111963,22.9177428957497
0.6, 4.07,4.07,,,0.08431554,1.847409,1.302485,,,0.09091505,1.866234,1.306582,,9.53710215572148,31.9984210879808,22.5556421345251
0.612, 3.59,3.59,,,0.07714532,1.847371,1.294378,,,0.08285752,1.864036,1.297947,,11.2522488397216,33.2733885592058,22.1403768898279
