経過時間(s),めり込み量(mm),Y軸めり込み量(mm),,デバイス先端,X座標,Y座標,Z座標,,仮想物体との接触位置,X座標,Y座標,Z座標,,接触点の法線と床の法線とのなす角,接触点の法線とデバイスの方向ベクトルのなす角,床の法線とデバイスの方向ベクトルのなす角
0.001, 0.25,0.25,,,0.3326951,1.768716,1.537249,,,0.3327821,1.769969,1.537275,,42.0122021326127,38.1863503226695,4.22336197838701
0.011, 2.06,2.06,,,0.3307768,1.761569,1.53537,,,0.3314227,1.771856,1.535626,,41.60527654866,37.8784112525087,3.96126073335739
0.022, 2.98,2.98,,,0.3312023,1.756089,1.536085,,,0.3320515,1.770962,1.536429,,41.7985845571704,38.3688222363632,3.62676844976339
0.032, 3.92,3.92,,,0.3323892,1.749633,1.537572,,,0.333304,1.769223,1.537932,,42.1723290830585,39.3551664118627,2.97302096697262
0.044, 4.92,4.92,,,0.3329405,1.744026,1.537948,,,0.3338985,1.768584,1.538334,,42.3087552777439,39.9082682852697,2.51263634764751
0.055, 5.82,5.82,,,0.333479,1.738563,1.539014,,,0.3343932,1.767623,1.539347,,42.5138624377172,40.5918062776267,2.01751509471765
0.066, 7.15,7.15,,,0.3326294,1.733083,1.53791,,,0.3335458,1.768838,1.538296,,42.254745558385,40.5967376740702,1.70616808042092
0.077, 8.2,8.2,,,0.3315366,1.729107,1.537029,,,0.332431,1.77011,1.537413,,41.9821732067623,40.5381619733782,1.47657757444052
0.088, 8.98,8.98,,,0.3276633,1.728276,1.535781,,,0.3287874,1.773183,1.536179,,41.3187876869907,39.7668321469675,1.6216027636083
0.1, 9.65,9.65,,,0.3220013,1.729916,1.532577,,,0.3236999,1.778145,1.533098,,40.2273405634678,38.190096681325,2.19633072287305
0.11, 9.04,9.04,,,0.3128285,1.739501,1.529602,,,0.315504,1.784633,1.530096,,38.763286140522,35.8028226894324,3.50364041957851
0.123, 8.71,8.71,,,0.3086076,1.745012,1.526385,,,0.3117006,1.788431,1.527054,,37.882895271574,34.286370471727,4.22813585359718
0.134, 8.08,8.08,,,0.3030543,1.7522,1.523885,,,0.3065414,1.792428,1.524736,,36.9381537771514,32.5464617913537,5.16361134289484
0.145, 7.82,7.82,,,0.2984564,1.757928,1.519456,,,0.3023211,1.796813,1.520492,,35.8754583341397,30.7910178461454,5.94418839141081
0.156, 7.37,7.37,,,0.2936861,1.764221,1.515819,,,0.297752,1.800832,1.516979,,34.8772159694372,29.1759376995696,6.6607059512575
0.167, 6.3,6.3,,,0.2901929,1.771669,1.515326,,,0.2939655,1.802942,1.516328,,34.3445090403243,28.346821059294,7.18263953791495
0.179, 5.33,5.33,,,0.2869661,1.778273,1.515369,,,0.2903416,1.804671,1.516183,,33.902694851062,27.7794970248835,7.55587777604493
0.188, 4.47,4.47,,,0.2834269,1.785006,1.514052,,,0.2864255,1.807131,1.514702,,33.2640824267206,27.0225191330669,7.95171796328318
0.2, 3.65,3.65,,,0.2803366,1.791323,1.512681,,,0.2828677,1.809389,1.513179,,32.6679059665116,26.4257006350937,8.17860488836625
0.211, 3.61,3.61,,,0.2780522,1.794153,1.509152,,,0.2805335,1.812007,1.509676,,31.9623747656391,25.6664687809137,8.13971891495618
0.221, 3.98,3.98,,,0.2774825,1.793461,1.506915,,,0.2800608,1.813193,1.507512,,31.6374797513356,25.5270304728881,7.69926564084817
0.233, 4.13,4.13,,,0.277805,1.79239,1.507458,,,0.280307,1.812871,1.507996,,31.7256609061612,26.0683844212496,7.17903319813354
0.243, 4.54,4.54,,,0.2765853,1.791737,1.505344,,,0.2791263,1.814308,1.505884,,31.3296363038205,26.0792307613498,6.62157921368588
0.255, 5.29,5.29,,,0.2735341,1.790465,1.502289,,,0.2762415,1.816793,1.502871,,30.6344630845361,25.7926257864678,6.06174789658639
0.266, 6.26,6.26,,,0.2691233,1.789605,1.496633,,,0.2721161,1.820757,1.497298,,29.494070826783,24.9065709833082,5.67954674296747
0.277, 7.21,7.21,,,0.2633542,1.78906,1.491216,,,0.2666251,1.824953,1.491924,,28.2422576962,23.9099781092443,5.38550539983357
0.288, 7.87,7.87,,,0.2544558,1.791321,1.484469,,,0.2580806,1.830487,1.485118,,26.5090613840467,22.3336558700352,5.42079442497208
0.299, 8.68,8.68,,,0.2455054,1.79288,1.476082,,,0.2496276,1.836069,1.476892,,24.6450208491519,20.3194143568296,5.6091983577949
0.311, 8.57,8.57,,,0.2324021,1.799659,1.468031,,,0.2370041,1.842269,1.468778,,22.4072801845972,17.9522911299751,6.28930503396311
0.322, 8.59,8.59,,,0.2210868,1.805581,1.456636,,,0.2260702,1.848242,1.45765,,20.0237918249468,15.1656559884251,6.85223085355733
0.332, 8.83,8.83,,,0.2067131,1.811384,1.440223,,,0.2123713,1.855163,1.44173,,16.8577874968837,11.4060493276248,7.68599885252825
0.344, 8.95,8.95,,,0.1962047,1.814708,1.430557,,,0.2020441,1.859033,1.432268,,14.8039547932559,9.43596413240094,7.89018479076285
0.355, 8.93,8.93,,,0.1856767,1.818235,1.42063,,,0.1916306,1.862453,1.422368,,12.7189183712731,7.82646595776894,8.05844137364207
0.366, 8.84,8.84,,,0.1753789,1.821611,1.410141,,,0.181356,1.865386,1.411924,,10.6081961698577,6.48525034919341,8.18410062917424
0.377, 8.97,8.97,,,0.1657333,1.823186,1.400796,,,0.1716723,1.867583,1.402489,,8.69583204792971,5.87696524458338,7.99104533765608
0.388, 9.01,9.01,,,0.1573476,1.824424,1.393013,,,0.1630518,1.869107,1.394418,,7.06694040546278,5.80596286881598,7.55374761085681
0.399, 8.86,8.86,,,0.1484885,1.826465,1.383841,,,0.1538796,1.870412,1.384936,,5.2725084608966,5.97841959103105,7.18913675518212
0.41, 8.56,8.56,,,0.1395907,1.828691,1.37587,,,0.1446104,1.871215,1.376538,,3.74339862235088,6.6154461308687,6.82866157893479
0.421, 8.12,8.12,,,0.1292228,1.831248,1.368216,,,0.133896,1.871588,1.36852,,2.70102854108302,7.74716746371177,6.64260338913977
0.433, 7.59,7.59,,,0.1186068,1.833809,1.359152,,,0.1229171,1.871527,1.359205,,2.76477512171966,9.04923968613005,6.52768460577857
0.444, 7.04,7.04,,,0.105919,1.835791,1.347876,,,0.1099226,1.870779,1.347874,,4.37206244955621,10.9001696732779,6.53245933476236
0.455, 6.35,6.35,,,0.09395208,1.837775,1.33516,,,0.09759741,1.869299,1.335212,,6.52203433194491,12.9812070196129,6.60515175541549
0.466, 6.68,6.68,,,0.08355062,1.83388,1.319838,,,0.0871281,1.867085,1.32011,,8.82605728479498,14.7141104874137,6.19077400839886
0.477, 6.75,6.75,,,0.07322948,1.830833,1.308131,,,0.07658356,1.864393,1.308487,,11.0220509805305,16.4290497044236,5.77081471632518
0.488, 6.47,6.47,,,0.06259844,1.828888,1.297378,,,0.06566282,1.861103,1.297752,,13.2331829363665,18.3455307227592,5.50979050672034
0.499, 5.95,5.95,,,0.05245794,1.827772,1.287401,,,0.05514325,1.857377,1.287674,,15.3684460067869,20.1405948866929,5.2404501151456
0.511, 5.11,5.11,,,0.04060633,1.827151,1.277442,,,0.04287291,1.852608,1.277566,,17.7434785924802,22.2787974996955,5.11538593982831
0.521, 5.15,5.15,,,0.03072327,1.822025,1.267184,,,0.03283431,1.847706,1.267256,,19.900271272339,23.9920172166297,4.71712829257797
0.533, 4.97,4.97,,,0.01978808,1.81622,1.253654,,,0.02166581,1.840981,1.253761,,22.5385154356579,26.3085731393711,4.36497868981038
0.544, 5,5,,,0.0102861,1.809723,1.243035,,,0.01198823,1.834688,1.243118,,24.7687480149763,28.1166778416147,3.92520715393994
0.555, 5.45,5.45,,,0.002181437,1.801084,1.232503,,,0.003773082,1.828308,1.232598,,26.8527530784231,29.7292786295909,3.37620446113793
0.566, 5.7,5.7,,,-0.006127544,1.792468,1.221223,,,-0.004726063,1.820921,1.221377,,29.093722714818,31.5999854289302,2.87480562420528
0.577, 6.03,6.03,,,-0.01400519,1.782678,1.209471,,,-0.01278126,1.812816,1.209731,,31.3847251930382,33.6132075364305,2.44208220303192
0.588, 6.32,6.32,,,-0.02123681,1.772923,1.198408,,,-0.02023433,1.804514,1.198761,,33.5860267993848,35.5219755638606,2.02390729782925
0.6, 6.75,6.75,,,-0.0273211,1.763229,1.189314,,,-0.02658616,1.796955,1.189631,,35.4859531471803,36.9319553806521,1.47604738102095
0.612, 7.38,7.38,,,-0.03324784,1.753381,1.182996,,,-0.03275656,1.790292,1.183046,,37.0915290857906,37.8673497614557,0.829687174498806
0.622, 7.7,7.7,,,-0.04002652,1.744621,1.177307,,,-0.03969668,1.783116,1.177051,,38.7579995742516,39.0225225481614,0.507448570099937
0.633, 7.45,7.45,,,-0.04682374,1.737125,1.169571,,,-0.04662647,1.77435,1.16915,,40.7144115849112,40.6568399219992,0.500068497546255
0.644, 6.45,6.45,,,-0.05530719,1.732256,1.162508,,,-0.05500414,1.764501,1.16204,,42.8257800929589,42.8141346207481,0.792041413997106
経過時間(s),めり込み量(mm),Y軸めり込み量(mm),,デバイス先端,X座標,Y座標,Z座標,,仮想物体との接触位置,X座標,Y座標,Z座標,,接触点の法線と床の法線とのなす角,接触点の法線とデバイスの方向ベクトルのなす角,床の法線とデバイスの方向ベクトルのなす角
0.001, 0.61,-0.61,,,0.3164231,1.792146,1.521473,,,0.3163699,1.7891,1.521088,,37.7204836229144,32.126398338898,7.50887924567393
0.011, 0.25,-0.25,,,0.3177118,1.788852,1.5226,,,0.3176939,1.787634,1.522448,,38.0638747889756,32.6237419645673,7.43732703969364
0.022, 0.23,0.23,,,0.3180271,1.785787,1.523218,,,0.3180435,1.786943,1.523362,,38.224995531918,32.8376942192696,7.3643379327067
0.034, 0.67,0.67,,,0.3168725,1.784033,1.523346,,,0.3169246,1.787354,1.523763,,38.1300866409472,32.6047130580691,7.45177118183898
0.044, 1.47,1.47,,,0.3154978,1.78106,1.522329,,,0.3156258,1.788349,1.523262,,37.8981778194166,32.1941572286736,7.60552898106102
0.056, 2.44,2.44,,,0.313787,1.777525,1.520932,,,0.3140274,1.789629,1.522519,,37.5980422401654,31.6742705642761,7.79701759798191
0.066, 2.44,2.44,,,0.3099154,1.778992,1.522027,,,0.3102468,1.791104,1.523574,,37.2514238098111,31.0371778569827,7.68783702713748
0.077, 3.15,3.15,,,0.3107068,1.775661,1.520365,,,0.3110918,1.791285,1.52239,,37.2073042040952,31.0782443682246,7.76288458232825
0.088, 3.39,3.39,,,0.3093414,1.77417,1.522192,,,0.3097871,1.790962,1.524292,,37.2856123207502,31.1846279766817,7.53152900610505
0.099, 3.33,3.33,,,0.3103341,1.772853,1.524288,,,0.310743,1.78936,1.526303,,37.6648209978223,31.7333141329132,7.34293895063253
0.111, 3.69,3.69,,,0.3099628,1.770474,1.525523,,,0.3104048,1.788774,1.527699,,37.803528475627,31.9878616158178,7.16319313611542
0.122, 3.88,3.88,,,0.311006,1.769508,1.524346,,,0.311423,1.788779,1.526695,,37.8013701359094,32.014181749052,7.30497846782924
0.133, 4.78,4.78,,,0.3110092,1.764987,1.523815,,,0.3114856,1.788701,1.526773,,37.8194428159503,31.9992987672647,7.44845256376835
0.144, 6.32,6.32,,,0.3107228,1.758252,1.52124,,,0.3112274,1.789595,1.525395,,37.6087553915804,31.7111228489174,7.85450388353162
0.155, 7.12,7.12,,,0.3107061,1.754811,1.519786,,,0.3111657,1.790067,1.524585,,37.4969042168448,31.6282316754567,8.03568062264003
0.166, 7.47,7.47,,,0.3090077,1.754242,1.518967,,,0.3095187,1.791228,1.524063,,37.222497959481,31.2459903944776,8.1330355750393
0.177, 7.4,7.4,,,0.3045511,1.757018,1.518573,,,0.30539,1.793666,1.523532,,36.6408083300985,30.2919666732312,8.06021978409773
0.188, 7.34,7.34,,,0.3007172,1.759519,1.517978,,,0.3017747,1.795866,1.52283,,36.1087195330883,29.5112897332014,8.02357838154119
0.199, 7.07,7.07,,,0.296421,1.763535,1.516866,,,0.2977435,1.798556,1.521461,,35.4481173153259,28.5233558312169,8.01581843308635
0.211, 6.7,6.7,,,0.2916897,1.768684,1.514833,,,0.2932198,1.801855,1.519192,,34.6224943167136,27.3087706456691,8.16363567544308
0.222, 6.83,6.83,,,0.2868863,1.7729,1.508934,,,0.2886536,1.806695,1.513575,,33.3765278278975,25.5982932496104,8.59429701987471
0.233, 6.81,6.81,,,0.283183,1.776396,1.505081,,,0.2850671,1.810071,1.50974,,32.4822887507926,24.5182491265896,8.71944998764874
0.244, 6.43,6.43,,,0.2794253,1.7816,1.501496,,,0.2812856,1.813411,1.505915,,31.5760695222169,23.4863868641806,8.80247776488896
0.255, 5.87,5.87,,,0.2749829,1.787619,1.498626,,,0.2768117,1.816652,1.502677,,30.6737571617377,22.3574590786303,8.93111583659
0.266, 5.35,5.35,,,0.2725903,1.791962,1.497332,,,0.2742495,1.818405,1.500941,,30.1758466303832,21.9721578729881,8.77070884839599
0.277, 4.84,4.84,,,0.2719536,1.795264,1.496717,,,0.2733499,1.819205,1.499876,,29.9457034127039,22.0996638408657,8.43810425828132
0.289, 5.05,5.05,,,0.2733493,1.794418,1.495095,,,0.2744523,1.81943,1.49834,,29.8793447116693,22.7577252283275,8.04046687756772
0.3, 4.98,4.98,,,0.2742965,1.794526,1.495172,,,0.2750804,1.81923,1.498236,,29.9365338839983,23.5709668018665,7.53702474691304
0.311, 5.14,5.14,,,0.2741383,1.794204,1.494404,,,0.2746636,1.819725,1.497437,,29.7930691795691,24.1091481274468,7.1238119740043
0.322, 5.26,5.26,,,0.2728999,1.794796,1.492936,,,0.2732046,1.820921,1.4959,,29.4444870698831,24.3510665909275,6.75447292000824
0.333, 5.57,5.57,,,0.2691183,1.796424,1.488496,,,0.2693448,1.824102,1.491584,,28.4982070753928,23.6422517767029,6.63178906555046
0.344, 6.32,6.32,,,0.2625936,1.797573,1.481305,,,0.2628315,1.828976,1.484888,,26.9895327353882,22.09223601035,6.77279917081506
0.355, 6.96,6.96,,,0.2555301,1.799545,1.472899,,,0.2558796,1.834098,1.476992,,25.3137185484027,20.1957179268555,7.02869732359045
0.367, 7.24,7.24,,,0.245417,1.803387,1.465771,,,0.2461047,1.839338,1.470142,,23.4863954019168,17.8102351520229,7.26401270187477
0.377, 6.89,6.89,,,0.2322342,1.811867,1.454762,,,0.2335281,1.846035,1.459165,,20.9301647327745,14.1485375427029,7.89035896058184
0.389, 6.61,6.61,,,0.2219897,1.817902,1.44655,,,0.2235892,1.850627,1.450862,,18.9879151189648,11.5885220950922,8.23482758895467
0.399, 6.31,6.31,,,0.2117035,1.823932,1.436531,,,0.213559,1.855151,1.440809,,16.8617558366811,8.82932894531637,8.72519332280725
0.411, 5.91,5.91,,,0.2018968,1.829888,1.426334,,,0.2039109,1.85909,1.430507,,14.7680775180915,6.16389294589466,9.24245975595735
0.422, 5.34,5.34,,,0.1908583,1.836687,1.414333,,,0.192942,1.862991,1.418259,,12.3518110815263,3.25900567531786,9.81133253571904
0.433, 5.32,5.32,,,0.1838707,1.839156,1.404659,,,0.1859256,1.86537,1.4086,,10.6092352123563,2.16473618964247,9.84456482020097
0.444, 5.16,5.16,,,0.1799314,1.840907,1.401031,,,0.1817465,1.866374,1.404655,,9.78289333635379,1.9971378662262,9.26747361554915
0.456, 5.95,5.95,,,0.1809578,1.837422,1.39601,,,0.1824367,1.866891,1.399979,,9.31920034424152,3.30523431532478,8.41339861096724
0.467, 6.49,6.49,,,0.179608,1.835389,1.391784,,,0.1807304,1.867543,1.395848,,8.70590060025977,3.937659442224,7.71070279229509
0.477, 7.11,7.11,,,0.1788825,1.832669,1.388965,,,0.1794886,1.867966,1.393033,,8.28377613827945,4.70577779915374,6.89332639310242
0.489, 7.37,7.37,,,0.1758416,1.831964,1.38601,,,0.1760774,1.868599,1.389882,,7.61455507579802,4.81247004677541,6.29329429121421
0.5, 7.19,7.19,,,0.1685589,1.833948,1.380437,,,0.1687642,1.869698,1.384033,,6.28334782851217,3.94799010305617,6.00361402374401
0.511, 6.94,6.94,,,0.1598651,1.836182,1.373929,,,0.1601628,1.870695,1.37731,,4.75377994041799,3.11558429989994,5.86474518272463
0.523, 7.1,7.1,,,0.1538793,1.835958,1.367549,,,0.1540507,1.8713,1.370908,,3.49519190269713,3.26824371935664,5.6860994555201
0.533, 7.21,7.21,,,0.1444099,1.836025,1.355291,,,0.144632,1.871886,1.358871,,1.31596354614305,4.79979364291544,5.96167367519947
0.545, 7.19,7.19,,,0.1348489,1.836154,1.34317,,,0.135142,1.871887,1.346913,,0.920686102443728,6.8899399000288,6.24754952740784
0.555, 6.84,6.84,,,0.1245385,1.83735,1.332778,,,0.1250207,1.871344,1.336436,,3.00120083260004,8.96078617751889,6.44092455714762
0.567, 6.64,6.64,,,0.1160883,1.837445,1.323003,,,0.1166059,1.870422,1.326699,,4.84330877690668,10.9710081245098,6.7047551206496
0.578, 6.76,6.76,,,0.1074837,1.83551,1.313412,,,0.1079806,1.869092,1.31727,,6.68281057723065,12.8407595511655,6.85509270273993
0.589, 6.7,6.7,,,0.09960782,1.834213,1.304587,,,0.1000683,1.867485,1.308448,,8.39498612902455,14.5237684884678,6.91471939876123
0.6, 6.42,6.42,,,0.09110744,1.833743,1.297203,,,0.09157196,1.86561,1.300878,,10.0424183194775,16.0564270370754,6.87817233818998
0.611, 6.13,6.13,,,0.08353877,1.833102,1.290188,,,0.08393522,1.863564,1.293604,,11.5804445428498,17.3317718762415,6.6891169760932
0.622, 5.8,5.8,,,0.07601851,1.832508,1.283934,,,0.07633516,1.861342,1.287007,,13.0530290180579,18.4108461124272,6.3634078886406
0.633, 5.4,5.4,,,0.06905472,1.831921,1.276893,,,0.06929607,1.8588,1.279615,,14.5593230372029,19.5774406826546,6.05479049533669
0.645, 5.56,5.56,,,0.06396416,1.82885,1.270553,,,0.06400144,1.856537,1.273267,,15.7827328269128,20.4018940114041,5.84915015373617
0.656, 5.94,5.94,,,0.05950194,1.824518,1.263488,,,0.05931042,1.854079,1.266336,,17.0144122679301,21.3285901465417,5.76656761944008
0.667, 6.13,6.13,,,0.05482703,1.820875,1.25651,,,0.05441493,1.851374,1.259403,,18.2783131254603,22.3138124635012,5.72053299948887
0.678, 6.35,6.35,,,0.04912362,1.816714,1.249902,,,0.04850484,1.848319,1.252867,,19.6139975616225,23.3926852091119,5.72005317871303
0.689, 6.58,6.58,,,0.04348118,1.812057,1.242454,,,0.04268601,1.844819,1.245513,,21.0436056339952,24.6512192456512,5.7539437226579
0.7, 5.98,5.98,,,0.03468961,1.810438,1.235395,,,0.0340057,1.840224,1.238123,,22.7946867959925,26.2877444780768,5.63614217266035
0.711, 5.52,5.52,,,0.02736928,1.808025,1.227819,,,0.02671214,1.835494,1.230273,,24.4724936906129,27.8028187051555,5.52435417717283
0.722, 5.3,5.3,,,0.02075411,1.804057,1.219701,,,0.02000272,1.830431,1.222018,,26.1564050666342,29.2660074016481,5.51622454473945
0.733, 5.37,5.37,,,0.01389947,1.79834,1.211912,,,0.01303427,1.825054,1.214202,,27.8422869521762,30.705507295211,5.46898567709371
0.745, 5.25,5.25,,,0.006781723,1.793392,1.204945,,,0.005899658,1.819543,1.20717,,29.4789556185704,32.2383246457124,5.46260371926557
0.756, 5.12,5.12,,,-0.0008615386,1.787945,1.197954,,,-0.001716601,1.813441,1.200118,,31.2007574679579,33.9196098140709,5.44758797567997
0.767, 5.2,5.2,,,-0.008030813,1.780945,1.19032,,,-0.008966034,1.806843,1.19259,,32.9711253760873,35.7089110060527,5.64750163070762
0.779, 5.24,5.24,,,-0.01469031,1.773166,1.181145,,,-0.01573877,1.799231,1.183552,,34.9137574804799,37.7331809442281,5.98035381517281
0.789, 5.47,5.47,,,-0.02051207,1.764024,1.171543,,,-0.02178158,1.791209,1.174154,,36.8639198682229,39.660912991361,6.32182954011199
0.8, 5.75,5.75,,,-0.02571398,1.75548,1.163941,,,-0.02726567,1.784051,1.16671,,38.5329482624568,41.1206370744935,6.55804522268124
0.812, 6.3,6.3,,,-0.0305864,1.747117,1.159246,,,-0.03249093,1.778432,1.162195,,39.8029843372383,42.0143229062909,6.60850580509145
0.823, 6.65,6.65,,,-0.03595084,1.738871,1.154061,,,-0.03813568,1.771903,1.15707,,41.2375699098301,43.0948827085797,6.62800300642152
0.833, 7.12,7.12,,,-0.04120117,1.730114,1.149435,,,-0.04368494,1.765509,1.15256,,42.6041302152762,44.1545660382513,6.63193719527396
