経過時間(s),めり込み量(mm),Y軸めり込み量(mm),,デバイス先端,X座標,Y座標,Z座標,,仮想物体との接触位置,X座標,Y座標,Z座標,,接触点の法線と床の法線とのなす角,接触点の法線とデバイスの方向ベクトルのなす角,床の法線とデバイスの方向ベクトルのなす角
0.001, 0.2,-0.2,,,0.05854864,1.635027,1.018441,,,0.05836162,1.634086,1.018706,,44.7499911776726,31.0515929708248,18.8138033565825
0.01, 0.9,0.9,,,0.05865194,1.630577,1.020624,,,0.05948621,1.63481,1.01943,,44.7499911776726,30.9950253456929,18.7821471382077
0.022, 1.81,1.81,,,0.05848499,1.626515,1.022101,,,0.06016183,1.635078,1.019698,,44.7499911776726,31.0450394044986,18.6856621811298
0.033, 2.56,2.56,,,0.05752509,1.622205,1.022293,,,0.05988288,1.634313,1.018933,,44.7499911776726,31.1844777125242,18.5227468060329
0.045, 3.46,3.46,,,0.05697178,1.617222,1.022751,,,0.06012779,1.63362,1.018239,,44.7499911776726,31.2669351689846,18.3563565722924
0.055, 4.43,4.43,,,0.05612094,1.612956,1.024331,,,0.06009582,1.633951,1.01857,,44.7499911776726,31.2543437156,18.2309867460183
0.066, 5.55,5.55,,,0.05666707,1.608933,1.027152,,,0.06152574,1.635253,1.019873,,44.7499911776726,31.0680810470224,18.1848522345532
0.077, 6.9,6.9,,,0.05840048,1.605313,1.031903,,,0.06424689,1.638041,1.022661,,44.7499911776726,30.6787978412049,18.2659077947255
0.088, 8.25,8.25,,,0.06020239,1.601767,1.036797,,,0.06694844,1.640883,1.025503,,44.7499911776726,30.261555256798,18.3747605164989
0.099, 9.61,9.61,,,0.06137611,1.596413,1.039868,,,0.06893693,1.641966,1.026586,,44.7499911776726,30.0207296235541,18.3296061371525
0.11, 10.91,10.91,,,0.06314994,1.589934,1.041317,,,0.07137737,1.641766,1.026385,,44.7499911776726,30.0939458343247,17.987823480596
0.121, 11.92,11.92,,,0.06368473,1.583971,1.041363,,,0.07237469,1.640715,1.025335,,44.7499911776726,30.3035984850641,17.5928012084881
0.133, 12.49,12.49,,,0.06283928,1.579507,1.040089,,,0.07185028,1.639072,1.023692,,44.7499911776726,30.6478673304093,17.2193384278954
0.144, 12.92,12.92,,,0.06215739,1.576461,1.039469,,,0.07157575,1.63817,1.022789,,44.7499911776726,30.9231615123404,17.0277704100276
0.155, 13.05,13.05,,,0.06032423,1.575689,1.039329,,,0.07014777,1.637981,1.022601,,44.7499911776726,31.0824722552032,17.0826492709342
0.166, 13.38,13.38,,,0.05965499,1.574518,1.040111,,,0.06997077,1.638327,1.022946,,44.7499911776726,31.1135701056289,17.2102559840993
0.177, 13.36,13.36,,,0.05886905,1.57516,1.040693,,,0.06932107,1.638832,1.023452,,44.7499911776726,31.0565721785912,17.3574550943534
0.188, 13.19,13.19,,,0.05963063,1.575912,1.04051,,,0.06992562,1.638783,1.023402,,44.7499911776726,30.9826695338282,17.4051042002247
0.199, 12.94,12.94,,,0.05998466,1.577142,1.040246,,,0.07001726,1.638788,1.023408,,44.7499911776726,30.9159249271162,17.4233971538603
0.21, 13.67,13.67,,,0.0615574,1.574718,1.042382,,,0.07198324,1.639817,1.024437,,44.7499911776726,30.7501323349115,17.4663658727331
0.222, 14.26,14.26,,,0.06394456,1.57329,1.044786,,,0.07450271,1.641236,1.025855,,44.7499911776726,30.5320648913488,17.4753304957693
0.232, 14.82,14.82,,,0.06611321,1.57233,1.047301,,,0.07680343,1.64293,1.02755,,44.7499911776726,30.4189535467464,17.4268754275983
0.244, 15.18,15.18,,,0.06811377,1.57203,1.049216,,,0.0789254,1.644377,1.028996,,44.7499911776726,30.4067138480943,17.3648829248691
0.255, 15.5,15.5,,,0.068459,1.570987,1.049947,,,0.07956189,1.644922,1.029542,,44.7499911776726,30.5966511583431,17.2234211733582
0.266, 15.47,15.47,,,0.06902695,1.571163,1.049709,,,0.08024171,1.645023,1.029643,,44.7499911776726,30.8419369049909,17.069286006195
0.277, 15.4,15.4,,,0.06888314,1.572369,1.05028,,,0.08031631,1.645924,1.030544,,44.7499911776726,31.0631701411459,17.0122419753817
0.288, 15.12,15.12,,,0.06925408,1.574983,1.051159,,,0.0807725,1.647106,1.031726,,44.7499911776726,31.0638804807998,17.1764175203454
0.299, 14.7,14.7,,,0.06887652,1.579588,1.05345,,,0.08042152,1.649607,1.034227,,44.7499911776726,30.8738577931887,17.5438441214271
0.311, 14.32,14.32,,,0.06952128,1.584027,1.055746,,,0.0810196,1.652095,1.036715,,44.7499911776726,30.6744196900688,17.8763274756874
0.322, 14.16,14.16,,,0.07026643,1.587263,1.058101,,,0.08174118,1.654469,1.039089,,44.7499911776726,30.5327171743964,18.0711637389821
0.333, 13.98,13.98,,,0.07088238,1.589926,1.059761,,,0.08221152,1.656276,1.040896,,44.7499911776726,30.4598629636418,18.134513741771
0.344, 13.91,13.91,,,0.0719152,1.591539,1.060939,,,0.08309497,1.657552,1.042171,,44.7499911776726,30.4407657552538,18.095774617424
0.355, 14.05,14.05,,,0.07298151,1.5908,1.06106,,,0.08407228,1.657571,1.042191,,44.7499911776726,30.4790831154313,17.9340340348317
0.366, 14.1,14.1,,,0.07556219,1.594226,1.064866,,,0.08644593,1.661205,1.045824,,44.7499911776726,30.3404917508393,17.9145816566168
0.377, 14.23,14.23,,,0.07919738,1.59735,1.069041,,,0.08987115,1.664919,1.049538,,44.7499911776726,30.0544263608867,17.9939262544496
0.389, 14.49,14.49,,,0.08144256,1.599586,1.073152,,,0.09214684,1.668371,1.052991,,44.7499911776726,29.7937965946954,18.1375975720955
0.4, 14.43,14.43,,,0.08251484,1.603128,1.076405,,,0.09320747,1.671559,1.056179,,44.7499911776726,29.6767988725635,18.2654279739497
0.41, 14.11,14.11,,,0.08245033,1.606469,1.077685,,,0.09314111,1.673374,1.057994,,44.7499911776726,29.7908835190955,18.2959452583121
0.422, 13.73,13.73,,,0.08183617,1.610482,1.0792,,,0.09256245,1.675567,1.060187,,44.7499911776726,29.9749878479554,18.3244476369254
0.433, 13.19,13.19,,,0.08067971,1.615244,1.080472,,,0.09140062,1.67777,1.062389,,44.7499911776726,30.2229373683054,18.3685416294326
0.444, 12.6,12.6,,,0.07915469,1.620807,1.082293,,,0.08974838,1.680487,1.065107,,44.7499911776726,30.3776752996461,18.4778451436787
0.455, 11.93,11.93,,,0.07770179,1.626512,1.083817,,,0.08805482,1.682956,1.067576,,44.7499911776726,30.4838779080953,18.6300985937779
0.467, 11.51,11.51,,,0.07627966,1.631436,1.086193,,,0.08648427,1.685883,1.070503,,44.7499911776726,30.5254874193611,18.7620680901539
0.477, 11.12,11.12,,,0.0767513,1.636534,1.08892,,,0.08662146,1.689095,1.073715,,44.7499911776726,30.4767608511781,18.8185264322622
0.488, 10.96,10.96,,,0.07780886,1.640772,1.092278,,,0.08738303,1.692551,1.077171,,44.7499911776726,30.3048689002144,18.8444691975552
0.5, 10.81,10.81,,,0.07841574,1.644981,1.095716,,,0.08769189,1.696059,1.080679,,44.7499911776726,30.118872609007,18.8680213967053
0.511, 10.52,10.52,,,0.07926509,1.64984,1.098884,,,0.08816744,1.699529,1.084149,,44.7499911776726,29.9710229232526,18.8960285866176
0.522, 10.13,10.13,,,0.07856552,1.654922,1.101622,,,0.08713645,1.702752,1.087372,,44.7499911776726,29.9028542221382,18.9563920892751
0.533, 9.77,9.77,,,0.07707767,1.660295,1.104809,,,0.08544334,1.706399,1.091019,,44.7499911776726,29.8794813154489,19.0684242640187
0.544, 9.19,9.19,,,0.07603049,1.666309,1.107282,,,0.0840186,1.70966,1.09428,,44.7499911776726,29.8841634099946,19.1795770519311
0.555, 8.89,8.89,,,0.0750743,1.671394,1.110449,,,0.08290839,1.713307,1.097927,,44.7499911776726,29.985530244646,19.2016129491276
0.566, 8.46,8.46,,,0.07356545,1.676265,1.112646,,,0.08111964,1.716187,1.100806,,44.7499911776726,30.1330725718963,19.1718094195136
0.577, 8.25,8.25,,,0.07240078,1.680254,1.115248,,,0.07981768,1.719193,1.103813,,44.7499911776726,30.3002551075584,19.0818216797028
0.588, 8.31,8.31,,,0.07193157,1.683456,1.11877,,,0.07937649,1.722706,1.107326,,44.7499911776726,30.3919333191417,18.9704417880069
0.6, 8.42,8.42,,,0.07181223,1.686081,1.122072,,,0.07929569,1.725887,1.110507,,44.7499911776726,30.4172938108243,18.8779883499743
0.61, 8.62,8.62,,,0.07150095,1.688915,1.126167,,,0.07905193,1.729661,1.11428,,44.7499911776726,30.3134783534236,18.8545420187534
0.622, 8.95,8.95,,,0.07115716,1.691463,1.130848,,,0.0788931,1.733762,1.118382,,44.7499911776726,30.1226428733239,18.9174241535973
0.633, 9.28,9.28,,,0.07052835,1.693719,1.135253,,,0.07847307,1.737535,1.122155,,44.7499911776726,29.8851708628692,19.0580731126196
0.644, 9.64,9.64,,,0.06970367,1.695053,1.13888,,,0.07789221,1.740558,1.125178,,44.7499911776726,29.7548645175098,19.1153886434448
0.655, 9.69,9.69,,,0.06839119,1.696565,1.140631,,,0.07660154,1.742301,1.126921,,44.7499911776726,29.8149872560057,19.0456746120737
0.668, 9.89,9.89,,,0.06748173,1.697297,1.142476,,,0.07587658,1.744002,1.128621,,44.7499911776726,29.9751586026799,18.916160568636
0.677, 9.75,9.75,,,0.06574416,1.69858,1.142771,,,0.07406631,1.744668,1.129287,,44.7499911776726,30.194796989708,18.7603383447948
0.688, 9.77,9.77,,,0.06465709,1.700339,1.144627,,,0.07304294,1.746543,1.131163,,44.7499911776726,30.2679107476439,18.735324485203
0.699, 9.94,9.94,,,0.06378036,1.701613,1.146922,,,0.07233453,1.748609,1.133229,,44.7499911776726,30.2780979745075,18.7480474197254
0.711, 10.04,10.04,,,0.06321132,1.703408,1.149332,,,0.07184331,1.750881,1.135501,,44.7499911776726,30.2761547857427,18.7419258628521
0.721, 10.2,10.2,,,0.06254967,1.704988,1.151845,,,0.07131174,1.753232,1.137852,,44.7499911776726,30.3379748262001,18.6802782846663
0.733, 10.23,10.23,,,0.06229561,1.707823,1.154843,,,0.07111344,1.756258,1.140878,,44.7499911776726,30.4323031511077,18.6174900649209
0.744, 10.2,10.2,,,0.06134667,1.710938,1.157698,,,0.07017004,1.759184,1.143803,,44.7499911776726,30.4620452090209,18.6264427351264
0.755, 10.23,10.23,,,0.06124496,1.713732,1.160734,,,0.07011399,1.762099,1.146718,,44.7499911776726,30.3797550921905,18.7168163806146
0.766, 10.24,10.24,,,0.06051613,1.716987,1.164071,,,0.06940891,1.765381,1.150001,,44.7499911776726,30.3378826186489,18.7686182413857
0.777, 10.35,10.35,,,0.0606204,1.720629,1.168403,,,0.06959295,1.76955,1.154169,,44.7499911776726,30.3207559197817,18.7689682885709
0.788, 10.45,10.45,,,0.06026303,1.72402,1.172386,,,0.06928178,1.773432,1.158051,,44.7499911776726,30.3496373738834,18.7075973330389
0.8, 10.59,10.59,,,0.0604769,1.730212,1.179464,,,0.06950696,1.780352,1.164972,,44.7499911776726,30.3649540726709,18.5944347620191
0.811, 10.68,10.68,,,0.06136755,1.735426,1.185246,,,0.07035314,1.785991,1.170611,,44.7499911776726,30.3071296927667,18.5464373165098
0.822, 10.65,10.65,,,0.06135192,1.740246,1.189952,,,0.07023171,1.790678,1.175298,,44.7499911776726,30.2246619910229,18.5517187601386
0.833, 10.51,10.51,,,0.06160118,1.746515,1.195389,,,0.0703226,1.796236,1.180856,,44.7499911776726,30.1272566659799,18.609133328704
0.844, 10.31,10.31,,,0.06143151,1.752217,1.19991,,,0.07001074,1.80099,1.18561,,44.7499911776726,30.0891647020387,18.6619289819717
0.855, 10.04,10.04,,,0.06005747,1.756131,1.202133,,,0.06851694,1.803616,1.188236,,44.7499911776726,30.1516745915832,18.6987266251012
0.867, 9.57,9.57,,,0.05810756,1.764157,1.207159,,,0.06633215,1.809418,1.194037,,44.7499911776726,30.346539883181,18.6769724732
0.877, 9,9,,,0.05568311,1.770152,1.209485,,,0.06361155,1.812729,1.197348,,44.7499911776726,30.6640070669689,18.5938781016173
0.889, 8.58,8.58,,,0.05430602,1.776136,1.212788,,,0.06200802,1.816753,1.201373,,44.7499911776726,30.9215598330246,18.5214780984299
0.899, 8.2,8.2,,,0.05222583,1.78131,1.215569,,,0.05966839,1.820175,1.204795,,44.7499911776726,31.1459042202599,18.4147171220316
0.911, 8.14,8.14,,,0.05194888,1.786029,1.219825,,,0.05929723,1.82465,1.20927,,44.7499911776726,31.3240867752743,18.213796867903
0.922, 8.31,8.31,,,0.05145172,1.78931,1.224011,,,0.05886342,1.828769,1.213389,,44.7499911776726,31.4948824809068,17.9671655740262
0.933, 8.74,8.74,,,0.0513334,1.790783,1.227946,,,0.05899176,1.8324,1.21702,,44.7499911776726,31.7746265309584,17.5721450094655
0.944, 9.2,9.2,,,0.05051762,1.791915,1.231618,,,0.05843352,1.835854,1.220474,,44.7499911776726,32.1740184164662,17.0777315348687
0.955, 9.9,9.9,,,0.04987005,1.790114,1.233539,,,0.05818249,1.837599,1.222219,,44.7499911776726,32.8900681083678,16.2748752636738
0.967, 10.41,10.41,,,0.04913501,1.789193,1.235124,,,0.05766466,1.839273,1.223893,,44.7499911776726,33.5637057417984,15.5290357025362
0.977, 10.93,10.93,,,0.04915595,1.788417,1.236978,,,0.05787602,1.841205,1.225825,,44.7499911776726,34.1808884482152,14.816606010794
0.988, 11.76,11.76,,,0.04906578,1.787681,1.240735,,,0.05823538,1.844633,1.229253,,44.7499911776726,34.6416700722748,14.272781241569
1, 12.66,12.66,,,0.04933827,1.787472,1.245438,,,0.05904107,1.848886,1.233506,,44.7499911776726,34.9954431255855,13.8658838321458
1.011, 13.69,13.69,,,0.04861621,1.786564,1.249999,,,0.05898792,1.853073,1.237692,,44.7499911776726,35.4679931652576,13.4130499867381
1.022, 14.67,14.67,,,0.04825052,1.784608,1.252948,,,0.05927614,1.856064,1.240684,,44.7499911776726,36.1720217245544,12.8110371300457
1.033, 15.41,15.41,,,0.04695695,1.782411,1.253792,,,0.05862208,1.857675,1.242295,,44.7499911776726,37.2042306190542,12.103120485672
1.044, 16.08,16.08,,,0.04484309,1.781328,1.25522,,,0.05728051,1.860043,1.244663,,44.7499911776726,38.255321570989,11.5489291971227
1.055, 16.31,16.31,,,0.04127791,1.781703,1.255591,,,0.05444855,1.861639,1.246259,,44.7499911776726,39.2822029180844,11.2737553972723
1.066, 16.46,16.46,,,0.03884092,1.783969,1.257619,,,0.05272387,1.864632,1.249252,,44.7499911776726,40.0788385946658,11.2352946031262
1.078, 16.81,16.81,,,0.0360442,1.786248,1.260945,,,0.05093886,1.868596,1.253216,,44.7499911776726,40.720599736127,11.4048062332305
1.088, 17.11,17.11,,,0.03423702,1.787832,1.264954,,,0.05006109,1.871605,1.257938,,45.249984916666,50.618192436021,11.5752886039435
1.1, 15.84,15.84,,,0.03291903,1.788903,1.268763,,,0.04795059,1.86644,1.263104,,45.249984916666,50.0682870910567,11.6172353557902
1.111, 14.73,14.73,,,0.0335942,1.788174,1.273901,,,0.04757873,1.860328,1.269215,,45.249984916666,49.6247790149274,11.4753825759602
1.122, 13.71,13.71,,,0.03489714,1.787063,1.279199,,,0.04769627,1.854309,1.275235,,45.249984916666,49.2627687537068,11.1974767005178
1.133, 12.55,12.55,,,0.0367621,1.786312,1.285071,,,0.04807162,1.847948,1.281595,,45.249984916666,49.0597618768449,10.7953220035676
1.144, 11.7,11.7,,,0.03880836,1.785706,1.289401,,,0.04901834,1.843221,1.286322,,45.249984916666,48.8490642071915,10.4344882423989
1.155, 10.87,10.87,,,0.04053859,1.785602,1.293144,,,0.04967975,1.839108,1.290435,,45.249984916666,48.6308464994712,10.0348359559362
1.166, 10.21,10.21,,,0.04271045,1.784679,1.296735,,,0.0510016,1.835022,1.294521,,45.249984916666,48.2094443299755,9.6121249514772
1.177, 9.74,9.74,,,0.04443409,1.784278,1.298811,,,0.05210578,1.832348,1.297195,,45.249984916666,47.5904550385735,9.21479749058857
1.188, 9.68,9.68,,,0.04510786,1.782955,1.299802,,,0.05261748,1.830736,1.298808,,45.249984916666,46.8542460438976,8.9790970604005
1.2, 9.04,9.04,,,0.04533097,1.782735,1.302637,,,0.05230938,1.827395,1.302149,,45.249984916666,46.2944266796288,8.88836056112279
1.21, 8.3,8.3,,,0.04493326,1.781747,1.306906,,,0.05138059,1.822763,1.30678,,45.249984916666,45.8612424341427,8.93340309612466
1.222, 7.65,7.65,,,0.0443415,1.780892,1.310707,,,0.05033492,1.818668,1.310875,,45.249984916666,45.4545729822768,9.02911111920615
1.233, 7.07,7.07,,,0.0424465,1.780269,1.313919,,,0.04809294,1.815165,1.314379,,45.249984916666,44.994556339383,9.24490410983855
1.244, 6.75,6.75,,,0.04083822,1.778869,1.316605,,,0.04630245,1.812168,1.317375,,45.249984916666,44.459995013962,9.4474977602672
1.255, 6.65,6.65,,,0.04020127,1.775852,1.319797,,,0.04557782,1.808641,1.320902,,45.249984916666,43.8707921767015,9.5564572037434
1.266, 6.83,6.83,,,0.04045835,1.771662,1.32275,,,0.04584459,1.805328,1.324216,,45.249984916666,43.2840345470959,9.48338186562058
1.277, 7.16,7.16,,,0.04258739,1.765557,1.326775,,,0.04793046,1.800921,1.328623,,45.249984916666,42.7159028428385,9.16754709699893
1.289, 7.37,7.37,,,0.04470062,1.760199,1.330781,,,0.04987771,1.796606,1.332937,,45.249984916666,42.2464810297193,8.85614341347801
1.3, 7.56,7.56,,,0.04604526,1.755015,1.334716,,,0.05103755,1.792424,1.33712,,45.249984916666,41.8899724857221,8.53669803620683
1.311, 7.49,7.49,,,0.04738359,1.749617,1.340379,,,0.05207114,1.7867,1.342843,,45.249984916666,41.7094505909821,8.24693068382714
1.322, 7.37,7.37,,,0.04911747,1.744341,1.346197,,,0.05350893,1.780834,1.348709,,45.249984916666,41.5276685263753,8.02051931065179
1.333, 7.14,7.14,,,0.04995633,1.738621,1.353032,,,0.05404386,1.774,1.355544,,45.249984916666,41.3715713874277,7.85617813360533
1.344, 7.03,7.03,,,0.0502835,1.733644,1.358489,,,0.05417277,1.768461,1.361083,,45.249984916666,41.1461307548611,7.7890843334817
1.355, 6.94,6.94,,,0.04989183,1.729522,1.362936,,,0.05365172,1.763912,1.365631,,45.249984916666,40.9111961596124,7.80994629194732
1.366, 6.96,6.96,,,0.04866771,1.725487,1.366726,,,0.05237177,1.759985,1.369559,,45.249984916666,40.6871044893694,7.85270498250902
1.377, 6.9,6.9,,,0.04723258,1.722388,1.370061,,,0.05090347,1.756569,1.372974,,45.249984916666,40.5122960477111,7.96481570442585
1.389, 6.79,6.79,,,0.04539285,1.719452,1.373469,,,0.0490507,1.753095,1.376449,,45.249984916666,40.3343969455395,8.14316730661743
1.4, 6.73,6.73,,,0.04442167,1.716417,1.376755,,,0.04806654,1.749714,1.37983,,45.249984916666,40.1284633326996,8.31330560656062
1.41, 6.42,6.42,,,0.04367694,1.713925,1.380806,,,0.04716265,1.745691,1.383852,,45.249984916666,39.931668512715,8.45739868837604
1.422, 6.13,6.13,,,0.04340358,1.710697,1.385558,,,0.04670761,1.741015,1.388528,,45.249984916666,39.8094217903519,8.50599975183647
1.433, 5.67,5.67,,,0.04350146,1.708013,1.390751,,,0.04651704,1.73605,1.393494,,45.249984916666,39.807338582713,8.44236202733669
1.444, 5.31,5.31,,,0.04345732,1.705343,1.395354,,,0.04624769,1.731594,1.397949,,45.249984916666,39.7409252401665,8.430933413626
1.455, 5.14,5.14,,,0.04321149,1.702104,1.399436,,,0.04589195,1.72754,1.402004,,45.249984916666,39.6177018007793,8.47651126468918
