経過時間(s),めり込み量(mm),Y軸めり込み量(mm),,デバイス先端,X座標,Y座標,Z座標,,仮想物体との接触位置,X座標,Y座標,Z座標,,接触点の法線と床の法線とのなす角,接触点の法線とデバイスの方向ベクトルのなす角,床の法線とデバイスの方向ベクトルのなす角
0.001, 0.8,-0.8,,,0.09397639,1.766063,1.646917,,,0.09336528,1.762491,1.645182,,43.6704456584473,19.9917309178749,27.4915687008867
0.011, 0.46,0.46,,,0.09588197,1.760034,1.644648,,,0.09622432,1.762098,1.645657,,43.7524113413011,19.6244631186871,27.5421804012281
0.022, 1.59,1.59,,,0.09743354,1.754333,1.642956,,,0.09856294,1.761399,1.646418,,43.8975255363691,19.4284725534548,27.4988855408314
0.033, 2.5,2.5,,,0.09924207,1.749124,1.642179,,,0.1009642,1.760261,1.647613,,44.1331294901378,19.473514234683,27.3430291660453
0.044, 3.26,3.26,,,0.0994136,1.745623,1.640694,,,0.1016214,1.76013,1.647748,,44.1603307177504,19.4853219238821,27.2376427651792
0.055, 3.84,3.84,,,0.09810372,1.743432,1.639039,,,0.1007341,1.760528,1.647337,,44.0781601292272,19.5330068882456,27.2216396323992
0.066, 4.28,4.28,,,0.09642597,1.742248,1.637248,,,0.09941322,1.761298,1.646529,,43.9185522731438,19.4456521862866,27.3426586282931
0.077, 4.84,4.84,,,0.09365684,1.741507,1.634138,,,0.097126,1.763005,1.64471,,43.563259502785,19.1736296648768,27.6032627812757
0.088, 5.52,5.52,,,0.0919579,1.73997,1.631008,,,0.0959867,1.764448,1.643154,,43.26100656495,18.8705878402146,27.8378336689612
0.1, 6.22,6.22,,,0.09071326,1.73819,1.628024,,,0.09529469,1.765709,1.641784,,42.9956707985515,18.5748252894577,28.0267020546347
0.111, 7.05,7.05,,,0.08982913,1.73525,1.625386,,,0.0949882,1.76639,1.641039,,42.8516869997598,18.3444669208256,28.1270033798052
0.122, 7.83,7.83,,,0.08964473,1.732004,1.623338,,,0.09527671,1.766605,1.64081,,42.8061091486966,18.1186745335266,28.1855005333239
0.133, 8.69,8.69,,,0.08985253,1.727679,1.621982,,,0.09586809,1.766062,1.641412,,42.921109040552,17.9808105840608,28.1589686642313
0.144, 9.28,9.28,,,0.09046599,1.72445,1.621315,,,0.09666735,1.765489,1.642045,,43.0420716873868,17.9501635261078,28.039542809917
0.155, 9.45,9.45,,,0.09028051,1.721804,1.62303,,,0.09646265,1.763677,1.643987,,43.4228034966014,18.420965037401,27.7956726199353
0.167, 9.53,9.53,,,0.08977048,1.720119,1.624323,,,0.09599838,1.762418,1.645316,,43.6857760176128,18.8539921885405,27.6098675740193
0.177, 9.23,9.23,,,0.08918878,1.721748,1.62466,,,0.09537299,1.762714,1.64499,,43.6238671846986,18.9199615688033,27.655525679803
0.188, 8.94,8.94,,,0.08897979,1.724113,1.62412,,,0.09506287,1.763755,1.643879,,43.4064656845614,18.7101313331504,27.782135185377
0.2, 9.47,9.47,,,0.08512855,1.724288,1.620148,,,0.0917943,1.766135,1.641231,,42.9056250021344,18.4102621312694,28.0900998687465
0.211, 9.28,9.28,,,0.08357583,1.727605,1.617776,,,0.09027725,1.768585,1.638493,,42.3851202056342,18.1172248259156,28.2211404594213
0.222, 8.98,8.98,,,0.08185741,1.730196,1.617008,,,0.08846542,1.769906,1.636947,,42.1020566837383,18.2333329159329,28.1139816245149
0.233, 8.49,8.49,,,0.08095521,1.732835,1.617701,,,0.08730005,1.770444,1.636289,,41.9864420748748,18.6031073944764,27.811764545172
0.244, 8.1,8.1,,,0.0808084,1.735491,1.617583,,,0.08694709,1.771477,1.635107,,41.7637710839396,18.7885214120733,27.5295496742569
0.255, 7.59,7.59,,,0.07965621,1.739658,1.616557,,,0.08551604,1.773441,1.63279,,41.3372633481814,18.8918109449225,27.2957574281151
0.267, 7.08,7.08,,,0.07830068,1.744052,1.615149,,,0.08388387,1.775633,1.630151,,40.8572240062929,18.9518073249223,27.1132838068741
0.277, 6.73,6.73,,,0.07680219,1.748568,1.612379,,,0.08222942,1.778617,1.626508,,40.1957509394356,18.8761510291387,26.9664979230534
0.288, 6.53,6.53,,,0.07574396,1.75238,1.609264,,,0.08109213,1.781549,1.622873,,39.537252419879,18.6957964740288,26.8572883239058
0.3, 6.56,6.56,,,0.07522944,1.756096,1.604407,,,0.08063906,1.785417,1.618019,,38.6537845507956,18.2028993013855,26.7771548392458
0.311, 6.66,6.66,,,0.07586289,1.75943,1.599376,,,0.0813507,1.789279,1.613108,,37.7542520772312,17.6153732755196,26.5866233025557
0.322, 6.52,6.52,,,0.07583167,1.763248,1.595492,,,0.0811968,1.792529,1.608788,,36.9828437036472,17.2743163265422,26.3202203191292
0.333, 6.29,6.29,,,0.07545594,1.767055,1.592248,,,0.08065182,1.795365,1.604881,,36.2980762772738,17.1376920563764,25.9899226253425
0.344, 6,6,,,0.07410342,1.771042,1.589036,,,0.07911348,1.798107,1.600916,,35.6251011721743,17.1455365284198,25.7011712635736
0.355, 5.9,5.9,,,0.07354636,1.774398,1.585024,,,0.07852107,1.801097,1.596569,,34.8781892713668,16.9797507664041,25.4419672993319
0.366, 5.83,5.83,,,0.07314533,1.777806,1.580579,,,0.07809234,1.804248,1.591872,,34.0758094058532,16.7163189151839,25.2278562427358
0.378, 5.93,5.93,,,0.07232411,1.781269,1.574393,,,0.07736106,1.808183,1.585776,,33.0493344550021,16.3016871705145,25.0482513008664
0.388, 6.07,6.07,,,0.07186362,1.784943,1.567255,,,0.07704246,1.812515,1.578825,,31.8853336490398,15.7990484408386,24.917687115873
0.4, 6.28,6.28,,,0.07075386,1.788078,1.559924,,,0.07614131,1.816637,1.57183,,30.7408671835602,15.4146778484449,24.8155194415637
0.41, 6.44,6.44,,,0.0705198,1.791128,1.553042,,,0.07605176,1.820425,1.565194,,29.653815286646,14.9744089894394,24.727901777329
0.422, 6.53,6.53,,,0.07071911,1.793845,1.54726,,,0.07630499,1.823571,1.559491,,28.7225395097973,14.5825900759631,24.5671020532686
0.433, 6.7,6.7,,,0.07152802,1.795349,1.542736,,,0.07719629,1.825952,1.555112,,27.9988673269942,14.2141099182313,24.2079894997228
0.444, 6.72,6.72,,,0.07250264,1.797191,1.539096,,,0.07810912,1.827996,1.551257,,27.3632618933512,13.9112268954628,23.7220898556895
0.455, 6.85,6.85,,,0.07355865,1.798729,1.534728,,,0.07924205,1.830254,1.546885,,26.6451528994721,13.6101137454138,23.2861752421587
0.466, 6.93,6.93,,,0.07414397,1.800797,1.529702,,,0.07989277,1.83273,1.541849,,25.835910401581,13.3313481199336,23.0496082317438
0.477, 7.07,7.07,,,0.07374842,1.803418,1.522408,,,0.07964264,1.835989,1.534787,,24.7325633813078,13.078121424823,23.0541178640178
0.488, 7.3,7.3,,,0.07388176,1.805546,1.514766,,,0.08000626,1.839185,1.527568,,23.603304331592,12.8220909371361,23.0993542056319
0.499, 7.31,7.31,,,0.07337797,1.808176,1.508273,,,0.07955171,1.841877,1.521063,,22.6103690237269,12.8094815545055,23.0760581385686
0.511, 7.21,7.21,,,0.07370614,1.810982,1.502642,,,0.0798202,1.844265,1.515103,,21.6933290682598,12.7594478589065,22.862305666894
0.522, 7.17,7.17,,,0.07389732,1.813089,1.497771,,,0.08001794,1.84624,1.509947,,20.9058116939666,12.7844267137798,22.5706668427338
0.533, 7.13,7.13,,,0.07466968,1.815392,1.492102,,,0.08080222,1.84842,1.504074,,20.0015185786832,12.7438827119948,22.382674428797
0.544, 7.11,7.11,,,0.07502162,1.817824,1.485413,,,0.08116098,1.850778,1.497297,,18.9764711373289,12.7913542329527,22.3143708314503
0.555, 7.19,7.19,,,0.07566348,1.819598,1.478902,,,0.08186123,1.852902,1.490886,,18.0046359907701,12.8109602904196,22.2758519806979
0.567, 7.4,7.4,,,0.07650435,1.820568,1.472256,,,0.08286645,1.854901,1.484537,,17.0403157596365,12.8098051347084,22.1636985700999
0.577, 7.78,7.78,,,0.07768746,1.820704,1.465317,,,0.08431387,1.856821,1.478118,,16.0608837353848,12.7416219194425,21.9796949865275
0.588, 8.13,8.13,,,0.07835418,1.820846,1.458144,,,0.08521284,1.858664,1.471448,,15.0614204744022,12.8098205026336,21.815437479296
0.6, 8.6,8.6,,,0.07969359,1.820357,1.450945,,,0.08685949,1.860374,1.464918,,14.0710405109892,12.8227526116935,21.6484752172285
0.611, 8.89,8.89,,,0.08058168,1.820589,1.443665,,,0.0879602,1.862037,1.457972,,13.0359313474938,13.0198121015012,21.4477615763165
0.622, 9.09,9.09,,,0.08067809,1.820811,1.438132,,,0.08820894,1.863224,1.452551,,12.2439197088518,13.2463498331726,21.2063331788952
0.633, 9.28,9.28,,,0.08078261,1.820949,1.432471,,,0.08846988,1.864367,1.446948,,11.428149257843,13.4641287012509,20.9039453448278
0.644, 9.42,9.42,,,0.08069571,1.821259,1.427034,,,0.08850545,1.865393,1.441499,,10.6428303506278,13.7480989307339,20.649271503427
0.655, 9.56,9.56,,,0.07983969,1.821722,1.419978,,,0.08778875,1.866578,1.434467,,9.65481790146997,14.3073010166736,20.4445058529028
0.667, 9.8,9.8,,,0.07973846,1.821606,1.412985,,,0.08789468,1.867619,1.427712,,8.69219497229789,14.8151101994074,20.3149388755005
0.677, 10.15,10.15,,,0.08035246,1.820953,1.40529,,,0.08879758,1.868625,1.420509,,7.64675514797035,15.371666440891,20.2756447982988
0.69, 10.52,10.52,,,0.08078922,1.820118,1.396869,,,0.08948354,1.869563,1.412624,,6.51743249211967,16.0263946961306,20.2176189278197
0.699, 10.99,10.99,,,0.08144291,1.818481,1.390218,,,0.09043311,1.870185,1.406579,,5.64062619172568,16.4221648739318,20.0724466761455
0.711, 11.34,11.34,,,0.08271091,1.817363,1.383507,,,0.0918849,1.870748,1.400199,,4.70069656543947,16.7729685025835,19.8550520061973
0.722, 11.66,11.66,,,0.0833353,1.81608,1.378577,,,0.0926834,1.871095,1.395402,,4.00677711271975,16.9076239707759,19.5017280378119
0.733, 11.94,11.94,,,0.08429565,1.814859,1.374794,,,0.09383106,1.871336,1.391612,,3.43849087543671,16.8807488846871,19.1145946339759
0.744, 12.18,12.18,,,0.08490792,1.813832,1.370314,,,0.09465405,1.871565,1.38707,,2.78115220734632,17.0231053909543,18.7767905625002
0.755, 12.37,12.37,,,0.08521774,1.813017,1.365452,,,0.09518062,1.871749,1.38212,,2.08750382775174,17.3098520922576,18.5099402016955
0.767, 12.68,12.68,,,0.08571371,1.811646,1.359637,,,0.09594455,1.871885,1.376482,,1.31209157604334,17.7390628753047,18.3307467787121
0.777, 12.98,12.98,,,0.08721836,1.810225,1.353471,,,0.09764294,1.871949,1.37062,,0.513200016107862,18.2005719144906,18.2255157646453
0.788, 13.33,13.33,,,0.08868266,1.808474,1.34726,,,0.09923311,1.871917,1.364663,,0.59544781778308,18.5835064596512,17.9996311697951
0.8, 13.4,13.4,,,0.09044763,1.807912,1.343108,,,0.1009691,1.87183,1.360183,,1.2056094634545,18.6487330568625,17.6345917197619
0.811, 13.15,13.15,,,0.09197468,1.808797,1.339923,,,0.1023778,1.8717,1.356043,,1.81574576272151,18.5898295070994,17.1721264541188
0.822, 12.93,12.93,,,0.0919354,1.809596,1.336866,,,0.1023876,1.871542,1.35215,,2.36984228239872,18.7218058336644,16.8487528644105
0.833, 12.57,12.57,,,0.09104313,1.810957,1.331168,,,0.1015502,1.871198,1.345686,,3.28610594419963,19.468914102405,16.7705420779484
0.845, 12.29,12.29,,,0.09036202,1.811822,1.324022,,,0.1009218,1.870664,1.33817,,4.36282461896083,20.5548475558738,16.9015177818278
0.855, 12.12,12.12,,,0.09020531,1.811937,1.315862,,,0.1008219,1.869913,1.329923,,5.54891937872601,21.7899847800622,17.1039577530044
0.867, 11.92,11.92,,,0.09068237,1.812206,1.310011,,,0.1012397,1.869232,1.323714,,6.44408992285302,22.4972542640301,17.0736829403508
0.878, 11.63,11.63,,,0.0924609,1.813056,1.30784,,,0.1027985,1.868848,1.320591,,6.90143126610075,22.2427921584877,16.5896189096059
0.889, 11.59,11.59,,,0.09438635,1.813073,1.309483,,,0.1047314,1.868902,1.321151,,6.83919458411548,21.1132103823426,15.7930891009536
0.899, 11.35,11.35,,,0.09553652,1.813938,1.309886,,,0.1057298,1.868783,1.32029,,6.97673538026508,20.2509143915497,15.0527188136417
0.911, 11.25,11.25,,,0.09663925,1.81381,1.307066,,,0.1067838,1.868285,1.3166,,7.52352658594142,19.9528381142759,14.507760233046
0.923, 11.16,11.16,,,0.0969035,1.813311,1.30152,,,0.1070101,1.867424,1.310619,,8.3872867984969,20.3796053972153,14.2750941143123
0.933, 11.11,11.11,,,0.0975579,1.812074,1.292771,,,0.1075836,1.865982,1.301797,,9.66926460493618,21.4233538959967,14.2179894655719
0.944, 11.08,11.08,,,0.09901771,1.810736,1.285036,,,0.1089595,1.864513,1.293967,,10.8249283114748,22.2728688956609,14.1245012539089
0.955, 11.22,11.22,,,0.1011124,1.809067,1.280853,,,0.1110611,1.863577,1.28955,,11.5028160299982,22.3607461070769,13.7925036968398
0.966, 11.52,11.52,,,0.1036768,1.806867,1.278666,,,0.1138213,1.862957,1.286995,,11.9318492281317,21.9545991646679,13.3305037378209
0.977, 11.81,11.81,,,0.1045141,1.804965,1.277506,,,0.1149277,1.862571,1.285381,,12.1920230792086,21.5065814562646,12.9220413613477
0.988, 12.1,12.1,,,0.1047255,1.802759,1.274287,,,0.1154698,1.861785,1.281935,,12.7041113753382,21.6009080736249,12.7414673864168
1, 12.15,12.15,,,0.1048488,1.80119,1.269037,,,0.1157187,1.860501,1.276489,,13.5008947547564,22.1486755694385,12.6710233785985
1.011, 12.23,12.23,,,0.1042957,1.799673,1.26486,,,0.1153213,1.859415,1.272045,,14.1398307593007,22.5220000387044,12.5610103784722
1.022, 12.4,12.4,,,0.1040513,1.798097,1.262687,,,0.1152786,1.858725,1.269358,,14.532210602047,22.3733460981976,12.2856222814425
1.033, 12.79,12.79,,,0.1048164,1.795826,1.262317,,,0.1163924,1.858428,1.268391,,14.698855260327,21.7653704865257,11.913450406567
1.044, 13.36,13.36,,,0.1047763,1.792406,1.260592,,,0.1168949,1.857854,1.266317,,15.0144441421453,21.5302019573045,11.6824995190409
1.055, 13.88,13.88,,,0.1045379,1.788268,1.254813,,,0.117166,1.85628,1.260688,,15.8480806599784,22.2398500545846,11.6806101180143
1.067, 14.43,14.43,,,0.1042592,1.783391,1.246694,,,0.1174056,1.854031,1.253124,,16.971867020774,23.5291950736124,11.8164147655025
1.077, 15.06,15.06,,,0.1036409,1.777688,1.237285,,,0.11732,1.851343,1.244684,,18.2278755949379,25.2147371572526,12.0436560066389
1.089, 15.6,15.6,,,0.1036997,1.772683,1.229759,,,0.1178383,1.848968,1.237794,,19.2728723107554,26.4291908616625,12.1595583372133
1.099, 16.28,16.28,,,0.1042544,1.767856,1.225548,,,0.1190325,1.847487,1.23381,,19.8983144231962,26.872198626449,12.1273164301334
1.111, 16.99,16.99,,,0.1049,1.763716,1.224278,,,0.1203632,1.846877,1.232327,,20.1508674909187,26.6634612210329,11.9569800547098
1.122, 17.97,17.97,,,0.1060777,1.758754,1.224462,,,0.1223567,1.846767,1.232331,,20.1961823797061,26.1696573408025,11.7199827423892
1.133, 19.14,19.14,,,0.1087954,1.752792,1.224907,,,0.1258332,1.846633,1.232557,,20.2524631369009,25.5300818598149,11.3607335850637
1.144, 20.22,20.22,,,0.110476,1.746688,1.223532,,,0.1280814,1.845936,1.231102,,20.5363001776987,25.3266788319922,11.029818612948
1.155, 21.19,21.19,,,0.1116812,1.740712,1.220786,,,0.1298003,1.844813,1.228465,,20.9853236314293,25.4863379144929,10.804908173801
1.166, 22.06,22.06,,,0.1112573,1.734491,1.215498,,,0.130032,1.842884,1.223543,,21.7354098625652,26.2294744283416,10.7726346770971
1.178, 22.56,22.56,,,0.1101014,1.73003,1.209803,,,0.1295731,1.840811,1.218321,,22.5151698497245,27.1997266786043,10.9628221430173
1.19, 23.26,23.26,,,0.1086193,1.725207,1.205913,,,0.1291364,1.839352,1.214747,,23.0490601090781,27.8193255643728,11.1740278079761
1.2, 24.01,24.01,,,0.1092369,1.720709,1.204208,,,0.1306669,1.838496,1.213027,,23.3573594717077,27.9159778610808,11.2277899329845
1.211, 24.72,24.72,,,0.1100454,1.716503,1.203121,,,0.1321095,1.837798,1.21169,,23.6062378977589,27.843017782397,11.1348199619103
1.222, 25.56,25.56,,,0.1109354,1.711399,1.201705,,,0.1335095,1.836903,1.209922,,23.9217977512741,27.7683877225076,10.9240736271605
1.233, 26.3,26.3,,,0.1111125,1.706294,1.198999,,,0.1340713,1.835516,1.206918,,24.4024091214897,27.9618169668724,10.7281266043829
1.244, 26.93,26.93,,,0.1112866,1.701393,1.195382,,,0.1346971,1.833759,1.203189,,24.9993164119196,28.3851110987156,10.6424239543834
1.257, 27.29,27.29,,,0.1097584,1.696839,1.188853,,,0.1337142,1.830908,1.19696,,25.9399478401235,29.4717361088186,10.7653238135677
1.267, 27.45,27.45,,,0.1071762,1.69333,1.18221,,,0.1319009,1.828053,1.190845,,26.8510284557057,30.7123067483405,11.0855683229495
1.277, 27.5,27.5,,,0.1048799,1.69062,1.176327,,,0.1304154,1.825408,1.185444,,27.6709738597284,31.8472007039648,11.4604731271906
1.288, 27.7,27.7,,,0.1030592,1.687801,1.172262,,,0.1294599,1.82346,1.181619,,28.2608938668318,32.5970564162226,11.7519343664374
1.299, 28.25,28.25,,,0.1024451,1.684582,1.171507,,,0.1296855,1.82289,1.180596,,28.4314197799996,32.5939008689139,11.8109600058284
1.31, 29,29,,,0.1031133,1.680239,1.171234,,,0.1309146,1.822291,1.179684,,28.6099506746519,32.3477818392105,11.6356384462231
1.321, 29.63,29.63,,,0.1038135,1.676305,1.171181,,,0.1317895,1.8216,1.178559,,28.8145114195068,31.9924651631903,11.3282679892948
1.333, 29.97,29.97,,,0.1034649,1.672788,1.168805,,,0.1316635,1.8198,1.175295,,29.3406818577659,32.1423365848827,11.1936424031792
1.344, 30,30,,,0.1010613,1.669719,1.163505,,,0.1297081,1.816847,1.169825,,30.1859279893176,33.0334508505293,11.3327007819428
1.355, 29.92,29.92,,,0.09806372,1.666254,1.15531,,,0.1274433,1.812775,1.162674,,31.3179566806648,34.7118639244217,11.7427084886727
1.366, 29.78,29.78,,,0.09547185,1.663231,1.147584,,,0.1254237,1.808861,1.156138,,32.3729203497512,36.3561465439813,12.1442595676718
1.378, 29.83,29.83,,,0.09363014,1.659858,1.140893,,,0.1240735,1.805518,1.150821,,33.2502444638472,37.8241112501181,12.4781593323718
1.388, 29.99,29.99,,,0.09191336,1.65635,1.136092,,,0.1227205,1.802744,1.146524,,33.9634698726056,38.7655264425075,12.6087687673672
1.4, 30.23,30.23,,,0.09130202,1.652772,1.132825,,,0.1223687,1.800336,1.142972,,34.5720021446793,39.2360684066194,12.5678081240544
1.411, 30.67,30.67,,,0.0917273,1.649513,1.132662,,,0.1229084,1.799407,1.141687,,34.8045427586906,38.9428859597497,12.2910778948902
1.422, 30.96,30.96,,,0.09195104,1.646348,1.131492,,,0.1231294,1.797794,1.139416,,35.2047884178209,38.8670708620723,12.0563336911593
1.433, 31.2,31.2,,,0.09210938,1.64385,1.130884,,,0.123235,1.796541,1.137669,,35.5129153181787,38.7084294777296,11.8405389929797
1.444, 31.43,31.43,,,0.09114242,1.640869,1.128966,,,0.1224092,1.794746,1.135107,,35.9505699223521,38.9156266755307,11.7498716493654
1.455, 31.75,31.75,,,0.09054446,1.636577,1.125187,,,0.122108,1.792035,1.131404,,36.602839309559,39.566567590981,11.7424062528103
1.466, 32.09,32.09,,,0.09008944,1.63208,1.120834,,,0.1218937,1.789185,1.127614,,37.2781400940062,40.4025622315593,11.7491169134831
