経過時間(s),めり込み量(mm),Y軸めり込み量(mm),,デバイス先端,X座標,Y座標,Z座標,,仮想物体との接触位置,X座標,Y座標,Z座標,,接触点の法線と床の法線とのなす角,接触点の法線とデバイスの方向ベクトルのなす角,床の法線とデバイスの方向ベクトルのなす角
0.001, 0.02,-0.02,,,0.209369,1.567215,0.9213605,,,0.2093615,1.567134,0.9213908,,45.7999961295596,26.0900036769184,20.7183144687308
0.011, 1.39,1.39,,,0.2105458,1.562051,0.9251641,,,0.2111001,1.568535,0.9227413,,45.7999961295596,25.9415785477425,20.7281209125588
0.022, 2.99,2.99,,,0.2118354,1.556247,0.9295609,,,0.2129321,1.570184,0.9243307,,45.7999961295596,25.8028830227684,20.7343722430227
0.033, 4.53,4.53,,,0.2121888,1.550108,0.9332821,,,0.2137219,1.571247,0.9253562,,45.7999961295596,25.771780049701,20.6557977489974
0.044, 5.82,5.82,,,0.2130259,1.544598,0.9360635,,,0.2148821,1.571804,0.9258928,,45.7999961295596,25.79512222054,20.5616248108891
0.055, 6.97,6.97,,,0.2124823,1.539103,0.9378986,,,0.2146363,1.57169,0.9257832,,45.7999961295596,25.8832555640427,20.4408875602906
0.066, 7.97,7.97,,,0.2112315,1.534125,0.9392693,,,0.2136908,1.571428,0.9255301,,45.7999961295596,26.0553097319948,20.2683894300549
0.077, 9.02,9.02,,,0.2102342,1.52833,0.940155,,,0.2130569,1.570648,0.9247788,,45.7999961295596,26.309812818671,20.029445513875
0.089, 10.01,10.01,,,0.2095213,1.52319,0.9412255,,,0.2126568,1.570203,0.9243497,,45.7999961295596,26.5307523566998,19.8114890608832
0.1, 10.94,10.94,,,0.20927,1.518162,0.94206,,,0.2126403,1.569599,0.9237667,,45.7999961295596,26.6900545618263,19.6357670814489
0.11, 11.82,11.82,,,0.2093635,1.514042,0.9435092,,,0.2129077,1.569654,0.9238202,,45.7999961295596,26.7593502441223,19.5394511715482
0.122, 12.52,12.52,,,0.2099165,1.510817,0.9447151,,,0.2135867,1.569715,0.923879,,45.7999961295596,26.7645838764282,19.5126495099909
0.133, 13.08,13.08,,,0.2095099,1.507491,0.9449946,,,0.2133033,1.569082,0.9232688,,45.7999961295596,26.8117377935985,19.4552093282168
0.144, 13.45,13.45,,,0.2094117,1.505424,0.9451911,,,0.2133247,1.568741,0.9229397,,45.7999961295596,26.8795871833781,19.3913641367267
0.155, 13.51,13.51,,,0.2083382,1.504236,0.9444194,,,0.2123455,1.567854,0.9220847,,45.7999961295596,26.9050091467614,19.3843478250971
0.166, 13.38,13.38,,,0.2075029,1.505188,0.9445641,,,0.2116154,1.568185,0.9224036,,45.7999961295596,26.8842931835852,19.4404800256815
0.177, 13.71,13.71,,,0.2054891,1.502768,0.9442269,,,0.209825,1.567315,0.9215649,,45.7999961295596,26.9311773082908,19.4247142419686
0.188, 13.86,13.86,,,0.2044736,1.501348,0.9437239,,,0.2089116,1.566619,0.9208941,,45.7999961295596,27.003910283191,19.3665603054461
0.2, 13.76,13.76,,,0.2045611,1.501885,0.9436512,,,0.2089606,1.566724,0.9209956,,45.7999961295596,27.0209942933771,19.3474152857353
0.211, 13.87,13.87,,,0.2039464,1.501949,0.9443586,,,0.2083857,1.567268,0.9215196,,45.7999961295596,27.00962544382,19.3604216731003
0.222, 13.87,13.87,,,0.2038506,1.502088,0.9445307,,,0.2083138,1.56741,0.9216568,,45.7999961295596,26.9860493390085,19.3896463441983
0.233, 13.95,13.95,,,0.2020708,1.502394,0.9453546,,,0.2066626,1.568077,0.9223003,,45.7999961295596,26.9551461489687,19.446512790098
0.244, 13.91,13.91,,,0.1998509,1.503397,0.9460998,,,0.2046038,1.568873,0.9230673,,45.7999961295596,26.9348417046786,19.5126904911247
0.256, 13.79,13.79,,,0.1978625,1.504943,0.9468452,,,0.2027083,1.56982,0.9239798,,45.7999961295596,26.9162823736728,19.5682250501734
0.266, 13.59,13.59,,,0.1953304,1.507358,0.9480209,,,0.20023,1.571259,0.9253673,,45.7999961295596,26.8269298414372,19.6918992820333
0.278, 13.61,13.61,,,0.1939306,1.508978,0.9497706,,,0.1988617,1.572929,0.9269772,,45.7999961295596,26.7342253939596,19.7907918807267
0.289, 13.57,13.57,,,0.1924197,1.511148,0.9516662,,,0.1972789,1.574846,0.9288252,,45.7999961295596,26.6190820681357,19.8886889793762
0.299, 13.51,13.51,,,0.1909733,1.51303,0.9531488,,,0.1957448,1.576441,0.9303625,,45.7999961295596,26.5727016698674,19.9154957635753
0.311, 13.62,13.62,,,0.1892028,1.514263,0.955029,,,0.1939999,1.578187,0.9320463,,45.7999961295596,26.5617989807081,19.9225223204884
0.322, 13.71,13.71,,,0.1870714,1.515532,0.9567893,,,0.191945,1.579864,0.933663,,45.7999961295596,26.5698705565352,19.9273717546642
0.333, 13.67,13.67,,,0.1831011,1.518682,0.9595487,,,0.1881067,1.58283,0.9365216,,45.7999961295596,26.6131363886286,19.9266699527465
0.344, 13.89,13.89,,,0.1776273,1.521147,0.9632716,,,0.1829003,1.586366,0.9399306,,45.7999961295596,26.6901757976807,19.9044240272388
0.355, 13.96,13.96,,,0.1732926,1.523673,0.9661219,,,0.1786864,1.589212,0.9426745,,45.7999961295596,26.7082433550799,19.9148024993938
0.367, 14.2,14.2,,,0.1711514,1.525625,0.9695082,,,0.176575,1.592247,0.9455997,,45.7999961295596,26.6450538617319,19.9593916806021
0.377, 14.55,14.55,,,0.1692939,1.526955,0.9730136,,,0.1747341,1.595183,0.9484302,,45.7999961295596,26.5590634900217,20.0116494564877
0.389, 15.11,15.11,,,0.164365,1.529728,0.9792875,,,0.1698946,1.600536,0.9535906,,45.7999961295596,26.4157456346555,20.1214242537734
0.4, 15.43,15.43,,,0.1608002,1.531749,0.9832865,,,0.1664175,1.604035,0.9569639,,45.7999961295596,26.3507666317948,20.1781318977794
0.411, 15.59,15.59,,,0.1557081,1.534391,0.9868554,,,0.1615143,1.607427,0.9602334,,45.7999961295596,26.3471739523913,20.2148902673222
0.422, 15.92,15.92,,,0.1502079,1.536417,0.990823,,,0.1563563,1.610985,0.9636637,,45.7999961295596,26.385506680494,20.2337979379659
0.433, 16.13,16.13,,,0.1438365,1.538872,0.9943762,,,0.1503363,1.614421,0.9669756,,45.7999961295596,26.4928038267272,20.1998518987356
0.444, 16.34,16.34,,,0.1376064,1.541305,0.9979551,,,0.1444295,1.617864,0.9702944,,45.7999961295596,26.5893485479587,20.1692099634243
0.455, 16.67,16.67,,,0.1311553,1.543191,1.00182,,,0.1382746,1.621323,0.9736296,,45.7999961295596,26.6321584649378,20.1697341804285
0.466, 16.97,16.97,,,0.1254961,1.545708,1.006124,,,0.132742,1.625223,0.9773885,,45.7999961295596,26.6031096712061,20.1982211911167
0.477, 17.31,17.31,,,0.1205798,1.547525,1.010061,,,0.12779,1.628607,0.9806506,,45.7999961295596,26.5163355353104,20.2363370607192
0.488, 17.78,17.78,,,0.1153573,1.549557,1.015089,,,0.122513,1.632776,0.9846697,,45.7999961295596,26.3498291883573,20.3386908576782
0.5, 18.09,18.09,,,0.1109193,1.552648,1.020267,,,0.1179087,1.637183,0.9889185,,45.7999961295596,26.0569728830114,20.5601375372388
0.511, 18.65,18.65,,,0.1058727,1.5554,1.026757,,,0.1129401,1.642437,0.9939833,,45.7999961295596,25.7608210114827,20.8224270393521
0.522, 19.16,19.16,,,0.1000192,1.557962,1.032552,,,0.1073376,1.647244,0.9986168,,45.7999961295596,25.5915023342171,21.0032819058049
0.533, 19.57,19.57,,,0.09346011,1.55956,1.036561,,,0.1011479,1.650818,1.002063,,45.7999961295596,25.7133751037335,20.9274394873716
0.544, 19.97,19.97,,,0.08691962,1.560712,1.039897,,,0.09497765,1.653934,1.005066,,45.7999961295596,25.95085223683,20.7382312997963
0.555, 20.26,20.26,,,0.07964962,1.562306,1.042897,,,0.08808601,1.657019,1.008041,,45.7999961295596,26.2535252312873,20.4959969400753
0.566, 20.48,20.48,,,0.07296021,1.564691,1.046461,,,0.08177001,1.660474,1.011371,,45.7999961295596,26.3634280946163,20.4500587965435
0.577, 20.72,20.72,,,0.06633434,1.56749,1.050683,,,0.07552829,1.664387,1.015143,,45.7999961295596,26.3692576609107,20.5075911858688
0.589, 21.2,21.2,,,0.05965014,1.569643,1.05575,,,0.0691766,1.668701,1.019302,,45.7999961295596,26.3240264419383,20.5801209626468
0.6, 21.5,21.5,,,0.05316593,1.572667,1.060707,,,0.06287592,1.673032,1.023477,,45.7999961295596,26.180380737501,20.7328098372935
0.611, 21.9,21.9,,,0.04625429,1.575581,1.066202,,,0.05613135,1.677741,1.028017,,45.7999961295596,26.0393356275179,20.8687425508251
0.622, 22.15,22.15,,,0.04048876,1.579062,1.0713,,,0.05033619,1.682282,1.032394,,45.7999961295596,25.8716681484382,21.0038812548879
0.633, 22.3,22.3,,,0.03457105,1.58329,1.076519,,,0.04441658,1.687105,1.037043,,45.7999961295596,25.7012976220697,21.1578473748738
0.644, 22.4,22.4,,,0.02853966,1.587418,1.081204,,,0.03856126,1.691616,1.041392,,45.7999961295596,25.6246799771872,21.2619377473809
0.655, 22.43,22.43,,,0.02105285,1.591282,1.085047,,,0.03141553,1.695593,1.045226,,45.7999961295596,25.6727679227005,21.2856197201216
0.667, 22.47,22.47,,,0.013062,1.59528,1.089135,,,0.02375214,1.699734,1.049218,,45.7999961295596,25.6845107251042,21.342950618872
0.677, 22.54,22.54,,,0.006568851,1.599675,1.093959,,,0.01755249,1.704364,1.053681,,45.7999961295596,25.5850017018554,21.5001525408872
0.689, 22.64,22.64,,,-9.134412E-05,1.604549,1.09943,,,0.01107914,1.709616,1.058744,,45.7999961295596,25.4779794707287,21.6375674054275
0.699, 22.73,22.73,,,-0.006872676,1.608711,1.104072,,,0.004492141,1.71409,1.063057,,45.7999961295596,25.3978357407852,21.7523077501016
0.711, 22.82,22.82,,,-0.0128366,1.612765,1.108664,,,-0.001336113,1.71851,1.067318,,45.7999961295596,25.3215681430879,21.8484870562227
0.722, 22.95,22.95,,,-0.01906,1.617344,1.113932,,,-0.007475141,1.7236,1.072225,,45.7999961295596,25.2507459135549,21.9239230784117
0.733, 23.18,23.18,,,-0.02496261,1.620978,1.118883,,,-0.01332125,1.72829,1.076746,,45.7999961295596,25.2372938563589,21.9237215878368
0.745, 23.21,23.21,,,-0.0308679,1.625335,1.123389,,,-0.01929228,1.732794,1.081088,,45.7999961295596,25.1810711557704,21.9600701460408
0.755, 23.25,23.25,,,-0.03639745,1.630172,1.128466,,,-0.02484286,1.737674,1.085792,,45.7999961295596,25.0175496014016,22.1135120490225
0.767, 23.27,23.27,,,-0.04262901,1.634961,1.133419,,,-0.03107101,1.74248,1.090425,,45.7999961295596,24.8765010763239,22.2512803758425
0.777, 23.4,23.4,,,-0.04881432,1.639137,1.13839,,,-0.03721737,1.747116,1.094894,,45.7999961295596,24.732578749233,22.3892928819186
0.789, 23.32,23.32,,,-0.05521987,1.643956,1.142676,,,-0.04360679,1.751461,1.099083,,45.7999961295596,24.6103559325314,22.5233916897091
0.8, 23.33,23.33,,,-0.0616611,1.648649,1.147371,,,-0.04996221,1.756133,1.103587,,45.7999961295596,24.5305895705291,22.6208499487167
経過時間(s),めり込み量(mm),Y軸めり込み量(mm),,デバイス先端,X座標,Y座標,Z座標,,仮想物体との接触位置,X座標,Y座標,Z座標,,接触点の法線と床の法線とのなす角,接触点の法線とデバイスの方向ベクトルのなす角,床の法線とデバイスの方向ベクトルのなす角
0, 0.67,-0.67,,,0.1960508,1.575432,0.9253309,,,0.195581,1.572267,0.9263393,,45.7999961295596,29.4036664454444,19.1416814559231
0.01, 0.08,0.08,,,0.1956561,1.571034,0.9256362,,,0.1957108,1.571413,0.9255159,,45.7999961295596,29.4192085404683,18.9872850340314
0.021, 0.97,0.97,,,0.1963866,1.566501,0.9266298,,,0.1970202,1.571071,0.9251857,,45.7999961295596,29.4096360306129,18.8105419413446
0.032, 1.86,1.86,,,0.1971401,1.562021,0.9277016,,,0.198309,1.570809,0.9249332,,45.7999961295596,29.3902178033429,18.6480602832479
0.044, 2.85,2.85,,,0.198002,1.557491,0.9293425,,,0.1997177,1.570988,0.9251064,,45.7999961295596,29.3801740104479,18.4753026058309
0.055, 3.68,3.68,,,0.1980406,1.553096,0.930095,,,0.200192,1.570522,0.9246569,,45.7999961295596,29.4295596918674,18.3193096272652
0.066, 4.49,4.49,,,0.1977566,1.548902,0.9309821,,,0.200329,1.570212,0.9243585,,45.7999961295596,29.4626417121918,18.2073594147894
0.077, 5.28,5.28,,,0.1984237,1.545649,0.9326038,,,0.2013588,1.570674,0.9248036,,45.7999961295596,29.3802047462983,18.1857179610065
0.088, 6.09,6.09,,,0.1994243,1.5425,0.9345741,,,0.2026966,1.57141,0.9255127,,45.7999961295596,29.2478117782055,18.1956507633305
0.099, 6.91,6.91,,,0.2011569,1.539241,0.936417,,,0.2047208,1.572019,0.9260998,,45.7999961295596,29.1343418486817,18.1821167438668
0.11, 7.8,7.8,,,0.202167,1.535812,0.9385142,,,0.206044,1.572814,0.9268665,,45.7999961295596,29.0940676393615,18.1169174674115
0.122, 8.43,8.43,,,0.2018795,1.532489,0.9390705,,,0.2060376,1.572562,0.9266233,,45.7999961295596,29.2984337238304,17.8961094105205
0.132, 8.86,8.86,,,0.1998342,1.530089,0.9391696,,,0.2043512,1.572217,0.9262905,,45.7999961295596,29.584137113767,17.7154201761506
0.143, 9.08,9.08,,,0.1971457,1.528891,0.9392601,,,0.2020015,1.572091,0.9261699,,45.7999961295596,29.7754472920008,17.6760065706418
0.155, 9.11,9.11,,,0.1932652,1.529485,0.9399467,,,0.1984403,1.572803,0.9268562,,45.7999961295596,29.8919293348648,17.769168640781
0.166, 9.27,9.27,,,0.1906407,1.529246,0.9406061,,,0.196146,1.573309,0.9273441,,45.7999961295596,30.0145448874328,17.8189538882558
0.177, 9.39,9.39,,,0.1882121,1.529561,0.9416364,,,0.1939355,1.574207,0.9282091,,45.7999961295596,30.0626703989855,17.8748248341118
0.188, 9.8,9.8,,,0.1870356,1.528993,0.9435651,,,0.1930055,1.575587,0.9295393,,45.7999961295596,30.0482484549543,17.8859597496963
0.199, 9.83,9.83,,,0.1879691,1.529484,0.9442848,,,0.1937634,1.576206,0.9301365,,45.7999961295596,29.9093770526141,17.8885722969812
0.21, 9.9,9.9,,,0.1881214,1.530051,0.9452715,,,0.1938542,1.577082,0.930981,,45.7999961295596,29.832776483204,17.8962528444891
0.221, 10.82,10.82,,,0.1845199,1.529571,0.950505,,,0.1905826,1.580968,0.9347267,,45.7999961295596,29.6290626817826,17.9712944232645
0.233, 11.05,11.05,,,0.1821825,1.530427,0.9528047,,,0.1883416,1.582911,0.9365995,,45.7999961295596,29.5312919416292,18.0456376152168
0.243, 11.02,11.02,,,0.1789725,1.532548,0.954674,,,0.1852093,1.58487,0.9384888,,45.7999961295596,29.5220302053724,18.1075805990759
0.255, 10.96,10.96,,,0.1744816,1.535506,0.957134,,,0.18087,1.587492,0.9410158,,45.7999961295596,29.5261727149887,18.2119168583863
0.266, 10.87,10.87,,,0.1697733,1.538384,0.9593213,,,0.1763283,1.589915,0.9433514,,45.7999961295596,29.5823100382149,18.2897878429466
0.277, 10.66,10.66,,,0.1649481,1.541791,0.9612882,,,0.1716082,1.592319,0.9456689,,45.7999961295596,29.6765324951933,18.3453036189756
0.288, 10.6,10.6,,,0.1599304,1.545344,0.9643474,,,0.1667324,1.595563,0.9487964,,45.7999961295596,29.6926551562804,18.4460967177527
0.299, 10.39,10.39,,,0.1550755,1.549927,0.9675759,,,0.1618817,1.599086,0.9521925,,45.7999961295596,29.5636670373941,18.6621321800939
0.311, 10.24,10.24,,,0.1507009,1.554694,0.9713883,,,0.1574827,1.603051,0.9560146,,45.7999961295596,29.3328612913838,18.9332923901449
0.321, 10.07,10.07,,,0.1465487,1.560186,0.9758761,,,0.1531987,1.607663,0.9604611,,45.7999961295596,28.9894018234328,19.2447609604612
0.332, 10,10,,,0.1432002,1.564889,0.9801677,,,0.149753,1.611953,0.9645962,,45.7999961295596,28.6680277715484,19.5159314157957
0.344, 9.96,9.96,,,0.1398409,1.569945,0.9850005,,,0.1462483,1.616772,0.9692419,,45.7999961295596,28.3527974746515,19.7337751706693
0.355, 9.9,9.9,,,0.135848,1.574647,0.9892473,,,0.1420836,1.621113,0.9734271,,45.7999961295596,28.1221624833656,19.8681198652631
0.366, 9.87,9.87,,,0.1307105,1.579183,0.9935267,,,0.1368662,1.625497,0.9776534,,45.7999961295596,27.992865298428,19.9503348500147
0.377, 9.68,9.68,,,0.1252314,1.584543,0.9975829,,,0.1313232,1.629941,0.9819368,,45.7999961295596,27.9133943420991,20.0639669965268
0.388, 9.26,9.26,,,0.118264,1.590978,1.001228,,,0.1242428,1.634323,0.9861616,,45.7999961295596,27.8155262717527,20.2712888452769
0.399, 8.79,8.79,,,0.1104048,1.597979,1.005192,,,0.1163321,1.639064,0.9907315,,45.7999961295596,27.6838248602942,20.5949219821664
0.41, 8.22,8.22,,,0.1031841,1.60548,1.008967,,,0.1089513,1.643825,0.9953214,,45.7999961295596,27.5774856480654,20.8938161745705
0.421, 7.78,7.78,,,0.09515758,1.612368,1.012956,,,0.1007926,1.648584,0.9999092,,45.7999961295596,27.4392409155641,21.1961152161812
0.433, 7.42,7.42,,,0.08876745,1.619121,1.017342,,,0.09421419,1.653595,1.00474,,45.7999961295596,27.2151663207935,21.4860140496987
0.443, 7.31,7.31,,,0.08247982,1.625054,1.022447,,,0.08784601,1.658927,1.00988,,45.7999961295596,26.9584161019428,21.7397624004927
0.455, 7.12,7.12,,,0.07699347,1.630376,1.026518,,,0.08215305,1.663365,1.014158,,45.7999961295596,26.7493508474557,21.8674374155476
0.466, 7,7,,,0.07111254,1.635705,1.030966,,,0.07614608,1.668103,1.018725,,45.7999961295596,26.5813503966632,21.9905242511552
0.477, 6.85,6.85,,,0.0641512,1.641239,1.035425,,,0.06907343,1.672899,1.023349,,45.7999961295596,26.4090742475693,22.1558387301313
0.488, 6.59,6.59,,,0.05705799,1.64687,1.039331,,,0.06180804,1.677312,1.027603,,45.7999961295596,26.2339789379739,22.339335172172
0.499, 6.47,6.47,,,0.05070059,1.652891,1.044474,,,0.05537475,1.682717,1.032813,,45.7999961295596,25.9721419358805,22.6088510142261
0.51, 6.24,6.24,,,0.04402626,1.65919,1.049194,,,0.04856808,1.687878,1.037789,,45.7999961295596,25.68298247032,22.9352333021801
0.521, 6.13,6.13,,,0.03610811,1.66474,1.053932,,,0.04065609,1.692878,1.042609,,45.7999961295596,25.5067909153933,23.212497993632
0.532, 6.14,6.14,,,0.02781118,1.668882,1.057927,,,0.0324602,1.697009,1.046591,,45.7999961295596,25.5382029545121,23.3069253562797
0.543, 5.88,5.88,,,0.01940645,1.672782,1.060037,,,0.02396376,1.699777,1.049259,,45.7999961295596,25.7754017574076,23.2054611914354
0.555, 5.76,5.76,,,0.01145709,1.675956,1.062245,,,0.0159831,1.702398,1.051786,,45.7999961295596,25.9912254838904,23.08520546916
0.566, 5.82,5.82,,,0.004184917,1.679519,1.066026,,,0.008773157,1.706228,1.055478,,45.7999961295596,26.030637381852,23.0700629401915
0.577, 5.89,5.89,,,-0.001745429,1.683861,1.070761,,,0.002874181,1.710888,1.05997,,45.7999961295596,25.8104133061188,23.2463193819134
0.588, 6.01,6.01,,,-0.006914092,1.68913,1.076636,,,-0.002238598,1.716621,1.065497,,45.7999961295596,25.5179241234306,23.4914838927068
0.599, 6.22,6.22,,,-0.01158155,1.694253,1.08307,,,-0.006763179,1.722667,1.071326,,45.7999961295596,25.1278759364474,23.8425726817485
0.61, 6.37,6.37,,,-0.01732125,1.698936,1.088593,,,-0.01236915,1.72798,1.076447,,45.7999961295596,24.9187492102594,24.0727124843333
0.622, 6.64,6.64,,,-0.02342514,1.702239,1.093447,,,-0.0182336,1.732474,1.080779,,45.7999961295596,24.9024762850147,24.1301253453514
0.632, 6.77,6.77,,,-0.02959328,1.705583,1.097479,,,-0.02425995,1.736449,1.084611,,45.7999961295596,25.0181540731263,24.058492030877
0.644, 7.03,7.03,,,-0.0349034,1.70852,1.10194,,,-0.02934141,1.740586,1.088599,,45.7999961295596,25.0687077168613,24.0341697279194
0.655, 7.23,7.23,,,-0.04067862,1.712328,1.106848,,,-0.03493622,1.745283,1.093127,,45.7999961295596,25.069416348968,24.0615075593117
0.666, 7.31,7.31,,,-0.04640277,1.716646,1.111497,,,-0.04052964,1.749903,1.097581,,45.7999961295596,25.0148755824159,24.1963850086459
0.677, 7.34,7.34,,,-0.05266484,1.721213,1.116141,,,-0.04664831,1.754581,1.102091,,45.7999961295596,24.9607258441829,24.3805934978878
